0.00000	-0.0000523010
1.00000	-0.0000580174
2.00000	-0.0000608503
3.00000	-0.0000542243
4.00000	-0.0000307927
5.00000	0.0000124070
6.00000	0.0000708007
7.00000	0.0001326249
8.00000	0.0001842883
9.00000	0.0002158273
10.00000	0.0002252075
11.00000	0.0002171294
12.00000	0.0001989319
13.00000	0.0001759459
14.00000	0.0001489466
15.00000	0.0001154402
16.00000	0.0000726208
17.00000	0.0000210318
18.00000	-0.0000338911
19.00000	-0.0000822234
20.00000	-0.0001128498
21.00000	-0.0001173586
22.00000	-0.0000936751
23.00000	-0.0000469852
24.00000	0.0000124301
25.00000	0.0000733827
26.00000	0.0001281629
27.00000	0.0001740565
28.00000	0.0002126859
29.00000	0.0002462501
30.00000	0.0002747177
31.00000	0.0002939861
32.00000	0.0002972364
33.00000	0.0002781073
34.00000	0.0002345428
35.00000	0.0001716023
36.00000	0.0001006192
37.00000	0.0000360376
38.00000	-0.0000106912
39.00000	-0.0000351399
40.00000	-0.0000413480
41.00000	-0.0000380759
42.00000	-0.0000330199
43.00000	-0.0000278811
44.00000	-0.0000175781
45.00000	0.0000058382
46.00000	0.0000471189
47.00000	0.0001028226
48.00000	0.0001615044
49.00000	0.0002077140
50.00000	0.0002291730
51.00000	0.0002217352
52.00000	0.0001905481
53.00000	0.0001466356
54.00000	0.0001008549
55.00000	0.0000593923
56.00000	0.0000219924
57.00000	-0.0000149920
58.00000	-0.0000541042
59.00000	-0.0000924067
60.00000	-0.0001211734
61.00000	-0.0001291267
62.00000	-0.0001083520
63.00000	-0.0000590950
64.00000	0.0000095474
65.00000	0.0000828256
66.00000	0.0001469664
67.00000	0.0001936559
68.00000	0.0002223165
69.00000	0.0002372643
70.00000	0.0002437556
71.00000	0.0002441579
72.00000	0.0002367727
73.00000	0.0002173179
74.00000	0.0001818945
75.00000	0.0001304155
76.00000	0.0000680794
77.00000	0.0000053238
78.00000	-0.0000454577
79.00000	-0.0000738122
80.00000	-0.0000757817
81.00000	-0.0000551743
82.00000	-0.0000215343
83.00000	0.0000146650
84.00000	0.0000472711
85.00000	0.0000763969
86.00000	0.0001069055
87.00000	0.0001432430
88.00000	0.0001850053
89.00000	0.0002249157
90.00000	0.0002514985
91.00000	0.0002542761
92.00000	0.0002292991
93.00000	0.0001815552
94.00000	0.0001227845
95.00000	0.0000661108
96.00000	0.0000198624
97.00000	-0.0000148330
98.00000	-0.0000423144
99.00000	-0.0000668841
100.00000	-0.0000883898
101.00000	-0.0001011017
102.00000	-0.0000973022
103.00000	-0.0000723402
104.00000	-0.0000282184
105.00000	0.0000263503
106.00000	0.0000795081
107.00000	0.0001206446
108.00000	0.0001440799
109.00000	0.0001504073
110.00000	0.0001455114
111.00000	0.0001373235
112.00000	0.0001320127
113.00000	0.0001312450
114.00000	0.0001319858
115.00000	0.0001290004
116.00000	0.0001183558
117.00000	0.0000998763
118.00000	0.0000770631
119.00000	0.0000554730
120.00000	0.0000403985
121.00000	0.0000351407
122.00000	0.0000398014
123.00000	0.0000507619
124.00000	0.0000614836
125.00000	0.0000650808
126.00000	0.0000582788
127.00000	0.0000441873
128.00000	0.0000314966
129.00000	0.0000298326
130.00000	0.0000438029
131.00000	0.0000699032
132.00000	0.0000985150
133.00000	0.0001194403
134.00000	0.0001274666
135.00000	0.0001239757
136.00000	0.0001143726
137.00000	0.0001037652
138.00000	0.0000940622
139.00000	0.0000841319
140.00000	0.0000719666
141.00000	0.0000567036
142.00000	0.0000389977
143.00000	0.0000203021
144.00000	0.0000021645
145.00000	-0.0000135425
146.00000	-0.0000242775
147.00000	-0.0000273785
148.00000	-0.0000218342
149.00000	-0.0000099131
150.00000	0.0000031956
151.00000	0.0000121308
152.00000	0.0000149255
153.00000	0.0000146316
154.00000	0.0000175234
155.00000	0.0000286471
156.00000	0.0000476713
157.00000	0.0000681360
158.00000	0.0000808660
159.00000	0.0000794316
160.00000	0.0000642766
161.00000	0.0000427009
162.00000	0.0000247219
163.00000	0.0000176418
164.00000	0.0000226316
165.00000	0.0000353483
166.00000	0.0000496144
167.00000	0.0000612632
168.00000	0.0000699728
169.00000	0.0000782159
170.00000	0.0000889420
171.00000	0.0001034564
172.00000	0.0001205430
173.00000	0.0001365236
174.00000	0.0001462362
175.00000	0.0001446631
176.00000	0.0001291447
177.00000	0.0001012860
178.00000	0.0000671277
179.00000	0.0000351721
180.00000	0.0000126714
181.00000	0.0000026970
182.00000	0.0000033040
183.00000	0.0000094955
184.00000	0.0000164810
185.00000	0.0000221940
186.00000	0.0000279427
187.00000	0.0000368402
188.00000	0.0000511895
189.00000	0.0000702184
190.00000	0.0000896258
191.00000	0.0001030806
192.00000	0.0001052013
193.00000	0.0000938926
194.00000	0.0000710749
195.00000	0.0000415376
196.00000	0.0000105848
197.00000	-0.0000173329
198.00000	-0.0000396002
199.00000	-0.0000551957
200.00000	-0.0000646002
201.00000	-0.0000691114
202.00000	-0.0000696896
203.00000	-0.0000654569
204.00000	-0.0000532499
205.00000	-0.0000292148
206.00000	0.0000082143
207.00000	0.0000555430
208.00000	0.0001046150
209.00000	0.0001453337
210.00000	0.0001702061
211.00000	0.0001768569
212.00000	0.0001679832
213.00000	0.0001489335
214.00000	0.0001246659
215.00000	0.0000981659
216.00000	0.0000700652
217.00000	0.0000399157
218.00000	0.0000077403
219.00000	-0.0000242431
220.00000	-0.0000509927
221.00000	-0.0000653434
222.00000	-0.0000607250
223.00000	-0.0000345578
224.00000	0.0000094053
225.00000	0.0000613520
226.00000	0.0001091778
227.00000	0.0001430955
228.00000	0.0001594194
229.00000	0.0001606064
230.00000	0.0001524003
231.00000	0.0001397524
232.00000	0.0001241084
233.00000	0.0001033572
234.00000	0.0000736906
235.00000	0.0000326140
236.00000	-0.0000186064
237.00000	-0.0000733540
238.00000	-0.0001208425
239.00000	-0.0001492860
240.00000	-0.0001514562
241.00000	-0.0001287704
242.00000	-0.0000911111
243.00000	-0.0000519079
244.00000	-0.0000203940
245.00000	0.0000024116
246.00000	0.0000224583
247.00000	0.0000463804
248.00000	0.0000759483
249.00000	0.0001067597
250.00000	0.0001317119
251.00000	0.0001449176
252.00000	0.0001435102
253.00000	0.0001264218
254.00000	0.0000933739
255.00000	0.0000460323
256.00000	-0.0000099318
257.00000	-0.0000640665
258.00000	-0.0001045487
259.00000	-0.0001230028
260.00000	-0.0001182885
261.00000	-0.0000957975
262.00000	-0.0000636259
263.00000	-0.0000285024
264.00000	0.0000063575
265.00000	0.0000404503
266.00000	0.0000747745
267.00000	0.0001097677
268.00000	0.0001443019
269.00000	0.0001743890
270.00000	0.0001935217
271.00000	0.0001947096
272.00000	0.0001743523
273.00000	0.0001353858
274.00000	0.0000869513
275.00000	0.0000406383
276.00000	0.0000045359
277.00000	-0.0000201440
278.00000	-0.0000383840
279.00000	-0.0000566247
280.00000	-0.0000778850
281.00000	-0.0000994086
282.00000	-0.0001143181
283.00000	-0.0001154344
284.00000	-0.0000991205
285.00000	-0.0000671781
286.00000	-0.0000262235
287.00000	0.0000142459
288.00000	0.0000454617
289.00000	0.0000623293
290.00000	0.0000658933
291.00000	0.0000626895
292.00000	0.0000612203
293.00000	0.0000665929
294.00000	0.0000766646
295.00000	0.0000826065
296.00000	0.0000741996
297.00000	0.0000464800
298.00000	0.0000034112
299.00000	-0.0000437225
300.00000	-0.0000820026
301.00000	-0.0001023519
302.00000	-0.0001024635
303.00000	-0.0000860079
304.00000	-0.0000602305
305.00000	-0.0000332872
306.00000	-0.0000114682
307.00000	0.0000029856
308.00000	0.0000132875
309.00000	0.0000265231
310.00000	0.0000492549
311.00000	0.0000821181
312.00000	0.0001176301
313.00000	0.0001429074
314.00000	0.0001471759
315.00000	0.0001284168
316.00000	0.0000951733
317.00000	0.0000619422
318.00000	0.0000409585
319.00000	0.0000360393
320.00000	0.0000417134
321.00000	0.0000475936
322.00000	0.0000446393
323.00000	0.0000293652
324.00000	0.0000043022
325.00000	-0.0000240656
326.00000	-0.0000483168
327.00000	-0.0000622518
328.00000	-0.0000627447
329.00000	-0.0000507814
330.00000	-0.0000316432
331.00000	-0.0000131276
332.00000	-0.0000017490
333.00000	0.0000011357
334.00000	0.0000005879
335.00000	0.0000050714
336.00000	0.0000205316
337.00000	0.0000453121
338.00000	0.0000699706
339.00000	0.0000823244
340.00000	0.0000749252
341.00000	0.0000498921
342.00000	0.0000176706
343.00000	-0.0000089251
344.00000	-0.0000217792
345.00000	-0.0000209042
346.00000	-0.0000128868
347.00000	-0.0000062669
348.00000	-0.0000070437
349.00000	-0.0000166544
350.00000	-0.0000321668
351.00000	-0.0000477094
352.00000	-0.0000562659
353.00000	-0.0000518585
354.00000	-0.0000322106
355.00000	-0.0000008458
356.00000	0.0000333942
357.00000	0.0000597640
358.00000	0.0000712762
359.00000	0.0000684698
360.00000	0.0000589921
361.00000	0.0000525999
362.00000	0.0000545356
363.00000	0.0000620377
364.00000	0.0000662707
365.00000	0.0000585966
366.00000	0.0000368359
367.00000	0.0000074710
368.00000	-0.0000179165
369.00000	-0.0000290471
370.00000	-0.0000222912
371.00000	-0.0000015418
372.00000	0.0000248384
373.00000	0.0000484711
374.00000	0.0000639171
375.00000	0.0000692314
376.00000	0.0000652388
377.00000	0.0000545481
378.00000	0.0000407356
379.00000	0.0000271578
380.00000	0.0000153907
381.00000	0.0000044744
382.00000	-0.0000082840
383.00000	-0.0000249649
384.00000	-0.0000451179
385.00000	-0.0000653424
386.00000	-0.0000810992
387.00000	-0.0000885026
388.00000	-0.0000858804
389.00000	-0.0000737617
390.00000	-0.0000544292
391.00000	-0.0000313128
392.00000	-0.0000079919
393.00000	0.0000129235
394.00000	0.0000308146
395.00000	0.0000467407
396.00000	0.0000620237
397.00000	0.0000763967
398.00000	0.0000875821
399.00000	0.0000924892
400.00000	0.0000891781
401.00000	0.0000779527
402.00000	0.0000606997
403.00000	0.0000396683
404.00000	0.0000164708
405.00000	-0.0000071592
406.00000	-0.0000285153
407.00000	-0.0000435557
408.00000	-0.0000484106
409.00000	-0.0000414225
410.00000	-0.0000243119
411.00000	-0.0000012278
412.00000	0.0000237516
413.00000	0.0000485015
414.00000	0.0000728152
415.00000	0.0000962259
416.00000	0.0001161346
417.00000	0.0001278935
418.00000	0.0001273221
419.00000	0.0001135939
420.00000	0.0000901731
421.00000	0.0000630497
422.00000	0.0000373318
423.00000	0.0000152478
424.00000	-0.0000038108
425.00000	-0.0000210032
426.00000	-0.0000362335
427.00000	-0.0000478474
428.00000	-0.0000541783
429.00000	-0.0000551511
430.00000	-0.0000525167
431.00000	-0.0000484450
432.00000	-0.0000437895
433.00000	-0.0000376248
434.00000	-0.0000285184
435.00000	-0.0000164553
436.00000	-0.0000034448
437.00000	0.0000075057
438.00000	0.0000146433
439.00000	0.0000186742
440.00000	0.0000222479
441.00000	0.0000280855
442.00000	0.0000372657
443.00000	0.0000485930
444.00000	0.0000591666
445.00000	0.0000655088
446.00000	0.0000648428
447.00000	0.0000564809
448.00000	0.0000429596
449.00000	0.0000299071
450.00000	0.0000237866
451.00000	0.0000283632
452.00000	0.0000419081
453.00000	0.0000577032
454.00000	0.0000679913
455.00000	0.0000687857
456.00000	0.0000621726
457.00000	0.0000541837
458.00000	0.0000499340
459.00000	0.0000498818
460.00000	0.0000496875
461.00000	0.0000438117
462.00000	0.0000296794
463.00000	0.0000097234
464.00000	-0.0000099917
465.00000	-0.0000229853
466.00000	-0.0000252769
467.00000	-0.0000166263
468.00000	-0.0000000173
469.00000	0.0000197775
470.00000	0.0000379642
471.00000	0.0000509857
472.00000	0.0000573990
473.00000	0.0000577519
474.00000	0.0000538062
475.00000	0.0000473340
476.00000	0.0000391946
477.00000	0.0000290931
478.00000	0.0000159483
479.00000	-0.0000013179
480.00000	-0.0000229930
481.00000	-0.0000478366
482.00000	-0.0000730066
483.00000	-0.0000945054
484.00000	-0.0001086319
485.00000	-0.0001132424
486.00000	-0.0001086639
487.00000	-0.0000971259
488.00000	-0.0000811803
489.00000	-0.0000623943
490.00000	-0.0000407517
491.00000	-0.0000155916
492.00000	0.0000131837
493.00000	0.0000440862
494.00000	0.0000741192
495.00000	0.0000993901
496.00000	0.0001163900
497.00000	0.0001226281
498.00000	0.0001174607
499.00000	0.0001023321
500.00000	0.0000805175
501.00000	0.0000563957
502.00000	0.0000339124
503.00000	0.0000154656
504.00000	0.0000013324
505.00000	-0.0000094427
506.00000	-0.0000175724
507.00000	-0.0000221455
508.00000	-0.0000206102
509.00000	-0.0000100843
510.00000	0.0000105902
511.00000	0.0000392473
512.00000	0.0000704782
513.00000	0.0000970638
514.00000	0.0001127552
515.00000	0.0001145925
516.00000	0.0001040403
517.00000	0.0000861384
518.00000	0.0000669088
519.00000	0.0000504437
520.00000	0.0000370762
521.00000	0.0000239570
522.00000	0.0000076642
523.00000	-0.0000124425
524.00000	-0.0000328475
525.00000	-0.0000472099
526.00000	-0.0000502274
527.00000	-0.0000411880
528.00000	-0.0000247160
529.00000	-0.0000080934
530.00000	0.0000033197
531.00000	0.0000088800
532.00000	0.0000119575
533.00000	0.0000163304
534.00000	0.0000228935
535.00000	0.0000291644
536.00000	0.0000316848
537.00000	0.0000288374
538.00000	0.0000216848
539.00000	0.0000127541
540.00000	0.0000042596
541.00000	-0.0000021522
542.00000	-0.0000045975
543.00000	-0.0000005407
544.00000	0.0000121552
545.00000	0.0000332395
546.00000	0.0000593491
547.00000	0.0000849989
548.00000	0.0001053006
549.00000	0.0001177696
550.00000	0.0001227078
551.00000	0.0001218018
552.00000	0.0001167182
553.00000	0.0001083130
554.00000	0.0000967410
555.00000	0.0000818744
556.00000	0.0000637230
557.00000	0.0000430850
558.00000	0.0000220652
559.00000	0.0000045936
560.00000	-0.0000045580
561.00000	-0.0000019092
562.00000	0.0000120650
563.00000	0.0000318913
564.00000	0.0000492154
565.00000	0.0000571152
566.00000	0.0000541839
567.00000	0.0000450524
568.00000	0.0000367160
569.00000	0.0000334720
570.00000	0.0000341519
571.00000	0.0000338744
572.00000	0.0000284293
573.00000	0.0000176994
574.00000	0.0000053798
575.00000	-0.0000037587
576.00000	-0.0000066816
577.00000	-0.0000026961
578.00000	0.0000072110
579.00000	0.0000206768
580.00000	0.0000335370
581.00000	0.0000401631
582.00000	0.0000359217
583.00000	0.0000207572
584.00000	0.0000006805
585.00000	-0.0000147659
586.00000	-0.0000179938
587.00000	-0.0000076243
588.00000	0.0000111195
589.00000	0.0000300194
590.00000	0.0000423941
591.00000	0.0000456888
592.00000	0.0000418784
593.00000	0.0000361565
594.00000	0.0000349113
595.00000	0.0000430583
596.00000	0.0000612960
597.00000	0.0000849733
598.00000	0.0001063057
599.00000	0.0001188778
600.00000	0.0001217787
601.00000	0.0001196577
602.00000	0.0001187953
603.00000	0.0001221220
604.00000	0.0001271327
605.00000	0.0001279710
606.00000	0.0001195078
607.00000	0.0001002455
608.00000	0.0000723937
609.00000	0.0000404279
610.00000	0.0000094852
611.00000	-0.0000152925
612.00000	-0.0000298255
613.00000	-0.0000322619
614.00000	-0.0000242431
615.00000	-0.0000105062
616.00000	0.0000035002
617.00000	0.0000143833
618.00000	0.0000222077
619.00000	0.0000293835
620.00000	0.0000380975
621.00000	0.0000482012
622.00000	0.0000569571
623.00000	0.0000605018
624.00000	0.0000559977
625.00000	0.0000431482
626.00000	0.0000245718
627.00000	0.0000051504
628.00000	-0.0000097421
629.00000	-0.0000162382
630.00000	-0.0000139158
631.00000	-0.0000061664
632.00000	0.0000013565
633.00000	0.0000036372
634.00000	-0.0000007951
635.00000	-0.0000091649
636.00000	-0.0000160639
637.00000	-0.0000164227
638.00000	-0.0000078729
639.00000	0.0000086116
640.00000	0.0000299293
641.00000	0.0000524113
642.00000	0.0000734328
643.00000	0.0000919043
644.00000	0.0001084174
645.00000	0.0001241931
646.00000	0.0001397558
647.00000	0.0001534656
648.00000	0.0001615071
649.00000	0.0001596883
650.00000	0.0001463797
651.00000	0.0001243677
652.00000	0.0000999638
653.00000	0.0000798242
654.00000	0.0000674362
655.00000	0.0000620563
656.00000	0.0000600579
657.00000	0.0000575711
658.00000	0.0000521190
659.00000	0.0000427570
660.00000	0.0000294456
661.00000	0.0000130319
662.00000	-0.0000045254
663.00000	-0.0000200970
664.00000	-0.0000305579
665.00000	-0.0000341730
666.00000	-0.0000312295
667.00000	-0.0000233723
668.00000	-0.0000123023
669.00000	0.0000009005
670.00000	0.0000155408
671.00000	0.0000304440
672.00000	0.0000438074
673.00000	0.0000537885
674.00000	0.0000596592
675.00000	0.0000624269
676.00000	0.0000646211
677.00000	0.0000689351
678.00000	0.0000765259
679.00000	0.0000858322
680.00000	0.0000930136
681.00000	0.0000940684
682.00000	0.0000875422
683.00000	0.0000757343
684.00000	0.0000630640
685.00000	0.0000527612
686.00000	0.0000442383
687.00000	0.0000338969
688.00000	0.0000188283
689.00000	0.0000005580
690.00000	-0.0000147061
691.00000	-0.0000195487
692.00000	-0.0000103031
693.00000	0.0000108031
694.00000	0.0000379016
695.00000	0.0000658138
696.00000	0.0000931835
697.00000	0.0001214309
698.00000	0.0001514561
699.00000	0.0001804882
700.00000	0.0002027679
701.00000	0.0002124906
702.00000	0.0002070794
703.00000	0.0001878548
704.00000	0.0001581484
705.00000	0.0001212039
706.00000	0.0000794264
707.00000	0.0000358105
708.00000	-0.0000052142
709.00000	-0.0000382409
710.00000	-0.0000596213
711.00000	-0.0000695796
712.00000	-0.0000721932
713.00000	-0.0000723050
714.00000	-0.0000720244
715.00000	-0.0000692703
716.00000	-0.0000595576
717.00000	-0.0000395934
718.00000	-0.0000096313
719.00000	0.0000267687
720.00000	0.0000651561
721.00000	0.0001018062
722.00000	0.0001339632
723.00000	0.0001585903
724.00000	0.0001723346
725.00000	0.0001727066
726.00000	0.0001597271
727.00000	0.0001359454
728.00000	0.0001046079
729.00000	0.0000682190
730.00000	0.0000287062
731.00000	-0.0000104131
732.00000	-0.0000431745
733.00000	-0.0000626157
734.00000	-0.0000645544
735.00000	-0.0000500924
736.00000	-0.0000249965
737.00000	0.0000035240
738.00000	0.0000303130
739.00000	0.0000530843
740.00000	0.0000715480
741.00000	0.0000858582
742.00000	0.0000962745
743.00000	0.0001033613
744.00000	0.0001081684
745.00000	0.0001116299
746.00000	0.0001140404
747.00000	0.0001150641
748.00000	0.0001143305
749.00000	0.0001119117
750.00000	0.0001082892
751.00000	0.0001040783
752.00000	0.0000997638
753.00000	0.0000954985
754.00000	0.0000906659
755.00000	0.0000835847
756.00000	0.0000719672
757.00000	0.0000548081
758.00000	0.0000342341
759.00000	0.0000159362
760.00000	0.0000065914
761.00000	0.0000099752
762.00000	0.0000241754
763.00000	0.0000421049
764.00000	0.0000553240
765.00000	0.0000580914
766.00000	0.0000497171
767.00000	0.0000340770
768.00000	0.0000173940
769.00000	0.0000057284
770.00000	0.0000027295
771.00000	0.0000083953
772.00000	0.0000191293
773.00000	0.0000299289
774.00000	0.0000378348
775.00000	0.0000443059
776.00000	0.0000545838
777.00000	0.0000734709
778.00000	0.0001008472
779.00000	0.0001299330
780.00000	0.0001503930
781.00000	0.0001534534
782.00000	0.0001361871
783.00000	0.0001022140
784.00000	0.0000594554
785.00000	0.0000172324
786.00000	-0.0000161875
787.00000	-0.0000346216
788.00000	-0.0000355750
789.00000	-0.0000209916
790.00000	0.0000030429
791.00000	0.0000286698
792.00000	0.0000501922
793.00000	0.0000666056
794.00000	0.0000813387
795.00000	0.0000984989
796.00000	0.0001186290
797.00000	0.0001368586
798.00000	0.0001455687
799.00000	0.0001396334
800.00000	0.0001206915
801.00000	0.0000970342
802.00000	0.0000786856
803.00000	0.0000715816
804.00000	0.0000742734
805.00000	0.0000799434
806.00000	0.0000813953
807.00000	0.0000753273
808.00000	0.0000630667
809.00000	0.0000483296
810.00000	0.0000343280
811.00000	0.0000228934
812.00000	0.0000150840
813.00000	0.0000119937
814.00000	0.0000141784
815.00000	0.0000204903
816.00000	0.0000278024
817.00000	0.0000324492
818.00000	0.0000326147
819.00000	0.0000295579
820.00000	0.0000266538
821.00000	0.0000268780
822.00000	0.0000304197
823.00000	0.0000341921
824.00000	0.0000336497
825.00000	0.0000259696
826.00000	0.0000127612
827.00000	0.0000004544
828.00000	-0.0000025088
829.00000	0.0000096663
830.00000	0.0000362212
831.00000	0.0000693202
832.00000	0.0000977959
833.00000	0.0001126496
834.00000	0.0001113044
835.00000	0.0000977544
836.00000	0.0000794051
837.00000	0.0000630675
838.00000	0.0000524319
839.00000	0.0000481210
840.00000	0.0000488331
841.00000	0.0000525905
842.00000	0.0000573955
843.00000	0.0000616265
844.00000	0.0000647179
845.00000	0.0000675856
846.00000	0.0000723757
847.00000	0.0000809398
848.00000	0.0000929515
849.00000	0.0001048888
850.00000	0.0001113717
851.00000	0.0001082845
852.00000	0.0000959550
853.00000	0.0000797804
854.00000	0.0000672004
855.00000	0.0000628717
856.00000	0.0000652287
857.00000	0.0000671715
858.00000	0.0000605824
859.00000	0.0000414271
860.00000	0.0000119514
861.00000	-0.0000210555
862.00000	-0.0000503687
863.00000	-0.0000716691
864.00000	-0.0000844264
865.00000	-0.0000904144
866.00000	-0.0000915773
867.00000	-0.0000882052
868.00000	-0.0000784748
869.00000	-0.0000593724
870.00000	-0.0000287547
871.00000	0.0000120327
872.00000	0.0000572472
873.00000	0.0000979781
874.00000	0.0001260142
875.00000	0.0001373024
876.00000	0.0001335025
877.00000	0.0001202133
878.00000	0.0001038742
879.00000	0.0000893000
880.00000	0.0000787495
881.00000	0.0000723568
882.00000	0.0000685593
883.00000	0.0000646247
884.00000	0.0000575925
885.00000	0.0000458556
886.00000	0.0000302715
887.00000	0.0000138382
888.00000	-0.0000002635
889.00000	-0.0000106068
890.00000	-0.0000182407
891.00000	-0.0000253191
892.00000	-0.0000331418
893.00000	-0.0000407805
894.00000	-0.0000451319
895.00000	-0.0000421100
896.00000	-0.0000283563
897.00000	-0.0000029385
898.00000	0.0000315831
899.00000	0.0000689483
900.00000	0.0001011131
901.00000	0.0001206300
902.00000	0.0001236384
903.00000	0.0001110114
904.00000	0.0000876009
905.00000	0.0000600688
906.00000	0.0000341975
907.00000	0.0000133094
908.00000	-0.0000024225
909.00000	-0.0000149535
910.00000	-0.0000268637
911.00000	-0.0000394755
912.00000	-0.0000519674
913.00000	-0.0000617746
914.00000	-0.0000663427
915.00000	-0.0000647516
916.00000	-0.0000583492
917.00000	-0.0000497572
918.00000	-0.0000410625
919.00000	-0.0000324542
920.00000	-0.0000220991
921.00000	-0.0000074000
922.00000	0.0000135584
923.00000	0.0000405848
924.00000	0.0000711527
925.00000	0.0001005655
926.00000	0.0001232666
927.00000	0.0001342864
928.00000	0.0001310536
929.00000	0.0001145764
930.00000	0.0000891655
931.00000	0.0000608204
932.00000	0.0000343546
933.00000	0.0000116891
934.00000	-0.0000083607
935.00000	-0.0000279115
936.00000	-0.0000477537
937.00000	-0.0000661271
938.00000	-0.0000799283
939.00000	-0.0000867468
940.00000	-0.0000864003
941.00000	-0.0000807033
942.00000	-0.0000719871
943.00000	-0.0000617200
944.00000	-0.0000500743
945.00000	-0.0000363018
946.00000	-0.0000188660
947.00000	0.0000043418
948.00000	0.0000357022
949.00000	0.0000760077
950.00000	0.0001226249
951.00000	0.0001681315
952.00000	0.0002022337
953.00000	0.0002155786
954.00000	0.0002041192
955.00000	0.0001709202
956.00000	0.0001242895
957.00000	0.0000737035
958.00000	0.0000256459
959.00000	-0.0000173137
960.00000	-0.0000554110
961.00000	-0.0000884210
962.00000	-0.0001143288
963.00000	-0.0001295752
964.00000	-0.0001314495
965.00000	-0.0001200810
966.00000	-0.0000990535
967.00000	-0.0000740507
968.00000	-0.0000503512
969.00000	-0.0000308917
970.00000	-0.0000155127
971.00000	-0.0000018895
972.00000	0.0000126657
973.00000	0.0000295482
974.00000	0.0000480754
975.00000	0.0000658045
976.00000	0.0000800017
977.00000	0.0000891176
978.00000	0.0000936784
979.00000	0.0000956725
980.00000	0.0000968876
981.00000	0.0000972203
982.00000	0.0000942837
983.00000	0.0000848535
984.00000	0.0000673009
985.00000	0.0000435092
986.00000	0.0000185078
987.00000	-0.0000014275
988.00000	-0.0000118648
989.00000	-0.0000118163
990.00000	-0.0000039390
991.00000	0.0000068783
992.00000	0.0000155031
993.00000	0.0000181549
994.00000	0.0000134414
995.00000	0.0000023972
996.00000	-0.0000124362
997.00000	-0.0000282327
998.00000	-0.0000430212
999.00000	-0.0000556624
1000.00000	-0.0000650586
1001.00000	-0.0000691932
1002.00000	-0.0000652603
1003.00000	-0.0000509770
1004.00000	-0.0000261632
1005.00000	0.0000065051
1006.00000	0.0000423339
1007.00000	0.0000758954
1008.00000	0.0001024250
1009.00000	0.0001180295
1010.00000	0.0001199705
1011.00000	0.0001071628
1012.00000	0.0000811579
1013.00000	0.0000467139
1014.00000	0.0000107785
1015.00000	-0.0000197382
1016.00000	-0.0000406906
1017.00000	-0.0000520802
1018.00000	-0.0000574696
1019.00000	-0.0000613996
1020.00000	-0.0000667031
1021.00000	-0.0000729661
1022.00000	-0.0000770223
1023.00000	-0.0000749810
1024.00000	-0.0000644813
1025.00000	-0.0000458458
1026.00000	-0.0000214839
1027.00000	0.0000055384
1028.00000	0.0000329008
1029.00000	0.0000590817
1030.00000	0.0000828414
1031.00000	0.0001022986
1032.00000	0.0001150184
1033.00000	0.0001184103
1034.00000	0.0001104856
1035.00000	0.0000902578
1036.00000	0.0000579954
1037.00000	0.0000158026
1038.00000	-0.0000321128
1039.00000	-0.0000792115
1040.00000	-0.0001180481
1041.00000	-0.0001420054
1042.00000	-0.0001475176
1043.00000	-0.0001350134
1044.00000	-0.0001084517
1045.00000	-0.0000737210
1046.00000	-0.0000363878
1047.00000	-0.0000004688
1048.00000	0.0000319268
1049.00000	0.0000594337
1050.00000	0.0000806578
1051.00000	0.0000938997
1052.00000	0.0000984734
1053.00000	0.0000957708
1054.00000	0.0000892411
1055.00000	0.0000824243
1056.00000	0.0000764559
1057.00000	0.0000692610
1058.00000	0.0000569539
1059.00000	0.0000367767
1060.00000	0.0000088793
1061.00000	-0.0000240192
1062.00000	-0.0000587330
1063.00000	-0.0000927695
1064.00000	-0.0001242163
1065.00000	-0.0001501139
1066.00000	-0.0001661895
1067.00000	-0.0001679801
1068.00000	-0.0001534555
1069.00000	-0.0001245141
1070.00000	-0.0000864090
1071.00000	-0.0000456720
1072.00000	-0.0000077060
1073.00000	0.0000241243
1074.00000	0.0000485759
1075.00000	0.0000657701
1076.00000	0.0000770135
1077.00000	0.0000842791
1078.00000	0.0000896284
1079.00000	0.0000942694
1080.00000	0.0000980989
1081.00000	0.0001000906
1082.00000	0.0000993715
1083.00000	0.0000958409
1084.00000	0.0000899809
1085.00000	0.0000817659
1086.00000	0.0000699355
1087.00000	0.0000523208
1088.00000	0.0000269835
1089.00000	-0.0000064070
1090.00000	-0.0000462752
1091.00000	-0.0000893565
1092.00000	-0.0001313667
1093.00000	-0.0001671026
1094.00000	-0.0001911416
1095.00000	-0.0001985929
1096.00000	-0.0001872066
1097.00000	-0.0001587089
1098.00000	-0.0001185201
1099.00000	-0.0000739332
1100.00000	-0.0000312590
1101.00000	0.0000049866
1102.00000	0.0000321344
1103.00000	0.0000481726
1104.00000	0.0000521855
1105.00000	0.0000454227
1106.00000	0.0000320086
1107.00000	0.0000177717
1108.00000	0.0000073003
1109.00000	0.0000018556
1110.00000	-0.0000004407
1111.00000	-0.0000022675
1112.00000	-0.0000049152
1113.00000	-0.0000080857
1114.00000	-0.0000115422
1115.00000	-0.0000164162
1116.00000	-0.0000245513
1117.00000	-0.0000361442
1118.00000	-0.0000480967
1119.00000	-0.0000547251
1120.00000	-0.0000510545
1121.00000	-0.0000360740
1122.00000	-0.0000137071
1123.00000	0.0000093419
1124.00000	0.0000274659
1125.00000	0.0000387804
1126.00000	0.0000450282
1127.00000	0.0000486866
1128.00000	0.0000497892
1129.00000	0.0000448675
1130.00000	0.0000289329
1131.00000	-0.0000006301
1132.00000	-0.0000410702
1133.00000	-0.0000839228
1134.00000	-0.0001182055
1135.00000	-0.0001344175
1136.00000	-0.0001282425
1137.00000	-0.0001017605
1138.00000	-0.0000622714
1139.00000	-0.0000197548
1140.00000	0.0000164212
1141.00000	0.0000398837
1142.00000	0.0000488028
1143.00000	0.0000452116
1144.00000	0.0000331467
1145.00000	0.0000164238
1146.00000	-0.0000027458
1147.00000	-0.0000232973
1148.00000	-0.0000441289
1149.00000	-0.0000628249
1150.00000	-0.0000755878
1151.00000	-0.0000781344
1152.00000	-0.0000673295
1153.00000	-0.0000428581
1154.00000	-0.0000081797
1155.00000	0.0000296802
1156.00000	0.0000624617
1157.00000	0.0000839813
1158.00000	0.0000929928
1159.00000	0.0000931426
1160.00000	0.0000897702
1161.00000	0.0000858435
1162.00000	0.0000799710
1163.00000	0.0000680989
1164.00000	0.0000471798
1165.00000	0.0000177640
1166.00000	-0.0000166192
1167.00000	-0.0000517817
1168.00000	-0.0000850495
1169.00000	-0.0001150111
1170.00000	-0.0001403026
1171.00000	-0.0001582192
1172.00000	-0.0001652798
1173.00000	-0.0001582151
1174.00000	-0.0001349861
1175.00000	-0.0000952913
1176.00000	-0.0000407302
1177.00000	0.0000242561
1178.00000	0.0000925320
1179.00000	0.0001544181
1180.00000	0.0002007757
1181.00000	0.0002251783
1182.00000	0.0002262982
1183.00000	0.0002077013
1184.00000	0.0001759507
1185.00000	0.0001377340
1186.00000	0.0000971839
1187.00000	0.0000551060
1188.00000	0.0000100927
1189.00000	-0.0000385404
1190.00000	-0.0000883685
1191.00000	-0.0001333062
1192.00000	-0.0001660635
1193.00000	-0.0001817000
1194.00000	-0.0001805819
1195.00000	-0.0001682094
1196.00000	-0.0001523417
1197.00000	-0.0001390102
1198.00000	-0.0001297083
1199.00000	-0.0001211634
1200.00000	-0.0001075454
1201.00000	-0.0000838424
1202.00000	-0.0000486043
1203.00000	-0.0000050325
1204.00000	0.0000404193
1205.00000	0.0000801473
1206.00000	0.0001082933
1207.00000	0.0001219609
1208.00000	0.0001212298
1209.00000	0.0001080565
1210.00000	0.0000852343
1211.00000	0.0000559285
1212.00000	0.0000235364
1213.00000	-0.0000080532
1214.00000	-0.0000346689
1215.00000	-0.0000518723
1216.00000	-0.0000557233
1217.00000	-0.0000439138
1218.00000	-0.0000174162
1219.00000	0.0000182424
1220.00000	0.0000541257
1221.00000	0.0000808074
1222.00000	0.0000929592
1223.00000	0.0000916896
1224.00000	0.0000834771
1225.00000	0.0000758572
1226.00000	0.0000728434
1227.00000	0.0000731546
1228.00000	0.0000719417
1229.00000	0.0000644044
1230.00000	0.0000484588
1231.00000	0.0000253984
1232.00000	-0.0000014221
1233.00000	-0.0000280224
1234.00000	-0.0000514346
1235.00000	-0.0000704707
1236.00000	-0.0000864713
1237.00000	-0.0001024660
1238.00000	-0.0001211492
1239.00000	-0.0001420436
1240.00000	-0.0001603528
1241.00000	-0.0001685452
1242.00000	-0.0001605821
1243.00000	-0.0001356432
1244.00000	-0.0000986333
1245.00000	-0.0000574208
1246.00000	-0.0000182616
1247.00000	0.0000161971
1248.00000	0.0000459940
1249.00000	0.0000706575
1250.00000	0.0000878129
1251.00000	0.0000942582
1252.00000	0.0000893434
1253.00000	0.0000769478
1254.00000	0.0000641706
1255.00000	0.0000574093
1256.00000	0.0000586596
1257.00000	0.0000649591
1258.00000	0.0000713459
1259.00000	0.0000745145
1260.00000	0.0000742670
1261.00000	0.0000716511
1262.00000	0.0000658288
1263.00000	0.0000529444
1264.00000	0.0000284735
1265.00000	-0.0000082104
1266.00000	-0.0000512347
1267.00000	-0.0000893016
1268.00000	-0.0001113184
1269.00000	-0.0001116951
1270.00000	-0.0000930050
1271.00000	-0.0000640165
1272.00000	-0.0000347215
1273.00000	-0.0000121697
1274.00000	0.0000017484
1275.00000	0.0000093198
1276.00000	0.0000150616
1277.00000	0.0000233942
1278.00000	0.0000368972
1279.00000	0.0000551590
1280.00000	0.0000749379
1281.00000	0.0000916663
1282.00000	0.0001022827
1283.00000	0.0001071543
1284.00000	0.0001097458
1285.00000	0.0001135497
1286.00000	0.0001184855
1287.00000	0.0001194339
1288.00000	0.0001082643
1289.00000	0.0000781976
1290.00000	0.0000276009
1291.00000	-0.0000386366
1292.00000	-0.0001110208
1293.00000	-0.0001785759
1294.00000	-0.0002326599
1295.00000	-0.0002686641
1296.00000	-0.0002865883
1297.00000	-0.0002890021
1298.00000	-0.0002784189
1299.00000	-0.0002550302
1300.00000	-0.0002166000
1301.00000	-0.0001611787
1302.00000	-0.0000900420
1303.00000	-0.0000100627
1304.00000	0.0000681885
1305.00000	0.0001335026
1306.00000	0.0001787134
1307.00000	0.0002026825
1308.00000	0.0002102560
1309.00000	0.0002091333
1310.00000	0.0002059571
1311.00000	0.0002030939
1312.00000	0.0001976737
1313.00000	0.0001836950
1314.00000	0.0001561334
1315.00000	0.0001146969
1316.00000	0.0000647495
1317.00000	0.0000153585
1318.00000	-0.0000251971
1319.00000	-0.0000525008
1320.00000	-0.0000673609
1321.00000	-0.0000740145
1322.00000	-0.0000773094
1323.00000	-0.0000800593
1324.00000	-0.0000817246
1325.00000	-0.0000787611
1326.00000	-0.0000663556
1327.00000	-0.0000411308
1328.00000	-0.0000035280
1329.00000	0.0000407389
1330.00000	0.0000822397
1331.00000	0.0001111235
1332.00000	0.0001218433
1333.00000	0.0001157361
1334.00000	0.0001001264
1335.00000	0.0000837296
1336.00000	0.0000709489
1337.00000	0.0000589430
1338.00000	0.0000394492
1339.00000	0.0000045140
1340.00000	-0.0000477841
1341.00000	-0.0001106926
1342.00000	-0.0001716131
1343.00000	-0.0002172670
1344.00000	-0.0002393600
1345.00000	-0.0002366285
1346.00000	-0.0002141145
1347.00000	-0.0001800326
1348.00000	-0.0001420744
1349.00000	-0.0001051287
1350.00000	-0.0000699290
1351.00000	-0.0000342955
1352.00000	0.0000046189
1353.00000	0.0000466779
1354.00000	0.0000870065
1355.00000	0.0001167318
1356.00000	0.0001278435
1357.00000	0.0001188105
1358.00000	0.0000980133
1359.00000	0.0000812729
1360.00000	0.0000841976
1361.00000	0.0001136830
1362.00000	0.0001640051
1363.00000	0.0002196841
1364.00000	0.0002640611
1365.00000	0.0002866955
1366.00000	0.0002864814
1367.00000	0.0002685992
1368.00000	0.0002392605
1369.00000	0.0002021678
1370.00000	0.0001580982
1371.00000	0.0001070610
1372.00000	0.0000498775
1373.00000	-0.0000110635
1374.00000	-0.0000723611
1375.00000	-0.0001289515
1376.00000	-0.0001745443
1377.00000	-0.0002023169
1378.00000	-0.0002084904
1379.00000	-0.0001955987
1380.00000	-0.0001731313
1381.00000	-0.0001535805
1382.00000	-0.0001453274
1383.00000	-0.0001475954
1384.00000	-0.0001509295
1385.00000	-0.0001435211
1386.00000	-0.0001190404
1387.00000	-0.0000806687
1388.00000	-0.0000384422
1389.00000	-0.0000028643
1390.00000	0.0000214234
1391.00000	0.0000371083
1392.00000	0.0000511315
1393.00000	0.0000695294
1394.00000	0.0000939368
1395.00000	0.0001210733
1396.00000	0.0001452225
1397.00000	0.0001608210
1398.00000	0.0001646974
1399.00000	0.0001571040
1400.00000	0.0001421136
1401.00000	0.0001272762
1402.00000	0.0001213270
1403.00000	0.0001299847
1404.00000	0.0001514682
1405.00000	0.0001748817
1406.00000	0.0001842209
1407.00000	0.0001665918
1408.00000	0.0001200036
1409.00000	0.0000555516
1410.00000	-0.0000088112
1411.00000	-0.0000575707
1412.00000	-0.0000857466
1413.00000	-0.0000989946
1414.00000	-0.0001079314
1415.00000	-0.0001205779
1416.00000	-0.0001383019
1417.00000	-0.0001568436
1418.00000	-0.0001703466
1419.00000	-0.0001746195
1420.00000	-0.0001683297
1421.00000	-0.0001521320
1422.00000	-0.0001278140
1423.00000	-0.0000982824
1424.00000	-0.0000673997
1425.00000	-0.0000391121
1426.00000	-0.0000151717
1427.00000	0.0000060963
1428.00000	0.0000292172
1429.00000	0.0000578487
1430.00000	0.0000911432
1431.00000	0.0001223840
1432.00000	0.0001426070
1433.00000	0.0001461761
1434.00000	0.0001350810
1435.00000	0.0001180553
1436.00000	0.0001050955
1437.00000	0.0001015103
1438.00000	0.0001056556
1439.00000	0.0001117895
1440.00000	0.0001151976
1441.00000	0.0001153932
1442.00000	0.0001153902
1443.00000	0.0001183293
1444.00000	0.0001247343
1445.00000	0.0001320807
1446.00000	0.0001362939
1447.00000	0.0001332983
1448.00000	0.0001199339
1449.00000	0.0000947521
1450.00000	0.0000593263
1451.00000	0.0000195504
1452.00000	-0.0000154953
1453.00000	-0.0000368106
1454.00000	-0.0000404918
1455.00000	-0.0000300381
1456.00000	-0.0000145784
1457.00000	-0.0000039958
1458.00000	-0.0000043443
1459.00000	-0.0000167006
1460.00000	-0.0000393238
1461.00000	-0.0000703199
1462.00000	-0.0001087004
1463.00000	-0.0001527523
1464.00000	-0.0001988755
1465.00000	-0.0002414729
1466.00000	-0.0002752409
1467.00000	-0.0002968014
1468.00000	-0.0003049877
1469.00000	-0.0002993608
1470.00000	-0.0002792102
1471.00000	-0.0002443762
1472.00000	-0.0001969469
1473.00000	-0.0001425070
1474.00000	-0.0000879709
1475.00000	-0.0000382863
1476.00000	0.0000070108
1477.00000	0.0000534639
1478.00000	0.0001088717
1479.00000	0.0001784346
1480.00000	0.0002619064
1481.00000	0.0003522546
1482.00000	0.0004381930
1483.00000	0.0005064427
1484.00000	0.0005461400
1485.00000	0.0005514887
1486.00000	0.0005230970
1487.00000	0.0004671504
1488.00000	0.0003920962
1489.00000	0.0003059671
1490.00000	0.0002140989
1491.00000	0.0001205865
1492.00000	0.0000296790
1493.00000	-0.0000518494
1494.00000	-0.0001161204
1495.00000	-0.0001561510
1496.00000	-0.0001697719
1497.00000	-0.0001614697
1498.00000	-0.0001418574
1499.00000	-0.0001240626
1500.00000	-0.0001182062
1501.00000	-0.0001269461
1502.00000	-0.0001442903
1503.00000	-0.0001587354
1504.00000	-0.0001593578
1505.00000	-0.0001411351
1506.00000	-0.0001068529
1507.00000	-0.0000651772
1508.00000	-0.0000260240
1509.00000	0.0000028142
1510.00000	0.0000174157
1511.00000	0.0000168107
1512.00000	0.0000013980
1513.00000	-0.0000283353
1514.00000	-0.0000722478
1515.00000	-0.0001294963
1516.00000	-0.0001973084
1517.00000	-0.0002684914
1518.00000	-0.0003312075
1519.00000	-0.0003698790
1520.00000	-0.0003698138
1521.00000	-0.0003228662
1522.00000	-0.0002319209
1523.00000	-0.0001115796
1524.00000	0.0000167887
1525.00000	0.0001317355
1526.00000	0.0002187687
1527.00000	0.0002728860
1528.00000	0.0002978793
1529.00000	0.0003022865
1530.00000	0.0002958855
1531.00000	0.0002870903
1532.00000	0.0002817408
1533.00000	0.0002829861
1534.00000	0.0002917304
1535.00000	0.0003075916
1536.00000	0.0003298516
1537.00000	0.0003572369
1538.00000	0.0003866742
1539.00000	0.0004112230
1540.00000	0.0004200446
1541.00000	0.0004008592
1542.00000	0.0003450147
1543.00000	0.0002525630
1544.00000	0.0001332632
1545.00000	0.0000040860
1546.00000	-0.0001175284
1547.00000	-0.0002185181
1548.00000	-0.0002930771
1549.00000	-0.0003402470
1550.00000	-0.0003610335
1551.00000	-0.0003554285
1552.00000	-0.0003229128
1553.00000	-0.0002647983
1554.00000	-0.0001864194
1555.00000	-0.0000980121
1556.00000	-0.0000123017
1557.00000	0.0000589597
1558.00000	0.0001094471
1559.00000	0.0001394329
1560.00000	0.0001554024
1561.00000	0.0001661252
1562.00000	0.0001786155
1563.00000	0.0001949005
1564.00000	0.0002112776
1565.00000	0.0002192340
1566.00000	0.0002075300
1567.00000	0.0001648851
1568.00000	0.0000834180
1569.00000	-0.0000366888
1570.00000	-0.0001848948
1571.00000	-0.0003408068
1572.00000	-0.0004813212
1573.00000	-0.0005887215
1574.00000	-0.0006568133
1575.00000	-0.0006885945
1576.00000	-0.0006893275
1577.00000	-0.0006588654
1578.00000	-0.0005905698
1579.00000	-0.0004778808
1580.00000	-0.0003225977
1581.00000	-0.0001395745
1582.00000	0.0000491314
1583.00000	0.0002231636
1584.00000	0.0003746003
1585.00000	0.0005085359
1586.00000	0.0006381329
1587.00000	0.0007728973
1588.00000	0.0009127359
1589.00000	0.0010450061
1590.00000	0.0011509198
1591.00000	0.0012118305
1592.00000	0.0012159412
1593.00000	0.0011603787
1594.00000	0.0010505586
1595.00000	0.0008981894
1596.00000	0.0007167475
1597.00000	0.0005194152
1598.00000	0.0003142284
1599.00000	0.0001053470
1600.00000	-0.0001066164
1601.00000	-0.0003179083
1602.00000	-0.0005204923
1603.00000	-0.0007013291
1604.00000	-0.0008488781
1605.00000	-0.0009574346
1606.00000	-0.0010298294
1607.00000	-0.0010728542
1608.00000	-0.0010916287
1609.00000	-0.0010849946
1610.00000	-0.0010460616
1611.00000	-0.0009667416
1612.00000	-0.0008423609
1613.00000	-0.0006752043
1614.00000	-0.0004732846
1615.00000	-0.0002501478
1616.00000	-0.0000212331
1617.00000	0.0001963963
1618.00000	0.0003881326
1619.00000	0.0005429850
1620.00000	0.0006575467
1621.00000	0.0007342584
1622.00000	0.0007799295
1623.00000	0.0008003752
1624.00000	0.0007975977
1625.00000	0.0007697868
1626.00000	0.0007148549
1627.00000	0.0006346015
1628.00000	0.0005352724
1629.00000	0.0004251552
1630.00000	0.0003088071
1631.00000	0.0001854939
1632.00000	0.0000504375
1633.00000	-0.0000981223
1634.00000	-0.0002548501
1635.00000	-0.0004047191
1636.00000	-0.0005284531
1637.00000	-0.0006066383
1638.00000	-0.0006255083
1639.00000	-0.0005789070
1640.00000	-0.0004688506
1641.00000	-0.0003052201
1642.00000	-0.0001031934
1643.00000	0.0001176877
1644.00000	0.0003389539
1645.00000	0.0005426544
1646.00000	0.0007141688
1647.00000	0.0008391854
1648.00000	0.0009052825
1649.00000	0.0009028595
1650.00000	0.0008291734
1651.00000	0.0006913953
1652.00000	0.0005053417
1653.00000	0.0002932274
1654.00000	0.0000761733
1655.00000	-0.0001292611
1656.00000	-0.0003148386
1657.00000	-0.0004783724
1658.00000	-0.0006214904
1659.00000	-0.0007447655
1660.00000	-0.0008474105
1661.00000	-0.0009269877
1662.00000	-0.0009822109
1663.00000	-0.0010140329
1664.00000	-0.0010246878
1665.00000	-0.0010133836
1666.00000	-0.0009719231
1667.00000	-0.0008834261
1668.00000	-0.0007265476
1669.00000	-0.0004853341
1670.00000	-0.0001574671
1671.00000	0.0002387791
1672.00000	0.0006697973
1673.00000	0.0010922635
1674.00000	0.0014664385
1675.00000	0.0017600433
1676.00000	0.0019546514
1677.00000	0.0020440212
1678.00000	0.0020335449
1679.00000	0.0019361703
1680.00000	0.0017675752
1681.00000	0.0015431002
1682.00000	0.0012746750
1683.00000	0.0009752412
1684.00000	0.0006579397
1685.00000	0.0003382170
1686.00000	0.0000263365
1687.00000	-0.0002763571
1688.00000	-0.0005805662
1689.00000	-0.0009012499
1690.00000	-0.0012491490
1691.00000	-0.0016189308
1692.00000	-0.0019881350
1693.00000	-0.0023188931
1694.00000	-0.0025702638
1695.00000	-0.0027075652
1696.00000	-0.0027123010
1697.00000	-0.0025847286
1698.00000	-0.0023410213
1699.00000	-0.0020061722
1700.00000	-0.0016038887
1701.00000	-0.0011539811
1702.00000	-0.0006696322
1703.00000	-0.0001663693
1704.00000	0.0003381982
1705.00000	0.0008199107
1706.00000	0.0012556608
1707.00000	0.0016247585
1708.00000	0.0019161926
1709.00000	0.0021276695
1710.00000	0.0022660971
1711.00000	0.0023441603
1712.00000	0.0023781986
1713.00000	0.0023832156
1714.00000	0.0023696932
1715.00000	0.0023418670
1716.00000	0.0022987430
1717.00000	0.0022369286
1718.00000	0.0021516893
1719.00000	0.0020372407
1720.00000	0.0018848074
1721.00000	0.0016845252
1722.00000	0.0014272096
1723.00000	0.0011103302
1724.00000	0.0007378760
1725.00000	0.0003216981
1726.00000	-0.0001244034
1727.00000	-0.0005830483
1728.00000	-0.0010368221
1729.00000	-0.0014631780
1730.00000	-0.0018392480
1731.00000	-0.0021423132
1732.00000	-0.0023593139
1733.00000	-0.0024879645
1734.00000	-0.0025397851
1735.00000	-0.0025359185
1736.00000	-0.0025029371
1737.00000	-0.0024671946
1738.00000	-0.0024486771
1739.00000	-0.0024551337
1740.00000	-0.0024774296
1741.00000	-0.0024892278
1742.00000	-0.0024532480
1743.00000	-0.0023327749
1744.00000	-0.0021041171
1745.00000	-0.0017653524
1746.00000	-0.0013349890
1747.00000	-0.0008477307
1748.00000	-0.0003398054
1749.00000	0.0001546594
1750.00000	0.0006144395
1751.00000	0.0010273034
1752.00000	0.0013937023
1753.00000	0.0017215153
1754.00000	0.0020261197
1755.00000	0.0023223443
1756.00000	0.0026209697
1757.00000	0.0029192788
1758.00000	0.0032008768
1759.00000	0.0034356799
1760.00000	0.0035906350
1761.00000	0.0036398310
1762.00000	0.0035756363
1763.00000	0.0034125391
1764.00000	0.0031826263
1765.00000	0.0029259489
1766.00000	0.0026756385
1767.00000	0.0024493935
1768.00000	0.0022432299
1769.00000	0.0020368944
1770.00000	0.0018007131
1771.00000	0.0015082471
1772.00000	0.0011432242
1773.00000	0.0007063714
1774.00000	0.0002114336
1775.00000	-0.0003172511
1776.00000	-0.0008544267
1777.00000	-0.0013732092
1778.00000	-0.0018485469
1779.00000	-0.0022512896
1780.00000	-0.0025537156
1781.00000	-0.0027331500
1782.00000	-0.0027848277
1783.00000	-0.0027300902
1784.00000	-0.0026175375
1785.00000	-0.0025133532
1786.00000	-0.0024823167
1787.00000	-0.0025699078
1788.00000	-0.0027911260
1789.00000	-0.0031305146
1790.00000	-0.0035556774
1791.00000	-0.0040303250
1792.00000	-0.0045292377
1793.00000	-0.0050343894
1794.00000	-0.0055302698
1795.00000	-0.0059829042
1796.00000	-0.0063360687
1797.00000	-0.0065122447
1798.00000	-0.0064356625
1799.00000	-0.0060566752
1800.00000	-0.0053657498
1801.00000	-0.0043911412
1802.00000	-0.0031709557
1803.00000	-0.0017372016
1804.00000	-0.0000968334
1805.00000	0.0017409748
1806.00000	0.0037502756
1807.00000	0.0058539826
1808.00000	0.0079504866
1809.00000	0.0099331308
1810.00000	0.0117494501
1811.00000	0.0134165604
1812.00000	0.0150216026
1813.00000	0.0166539680
1814.00000	0.0183461625
1815.00000	0.0200093910
1816.00000	0.0214307550
1817.00000	0.0223079994
1818.00000	0.0223341193
1819.00000	0.0212664958
1820.00000	0.0189840533
1821.00000	0.0155147277
1822.00000	0.0109910425
1823.00000	0.0055978331
1824.00000	-0.0005756144
1825.00000	-0.0075325444
1826.00000	-0.0153007191
1827.00000	-0.0236011650
1828.00000	-0.0316405296
1829.00000	-0.0381232984
1830.00000	-0.0418929420
1831.00000	-0.0427324772
1832.00000	-0.0418513119
1833.00000	-0.0413118787
1834.00000	-0.0425074585
1835.00000	-0.0446165577
1836.00000	-0.0443626903
1837.00000	-0.0376723707
1838.00000	-0.0223960634
1839.00000	-0.0003776835
1840.00000	0.0230545048
1841.00000	0.0415729210
1842.00000	0.0513535179
1843.00000	0.0525570959
1844.00000	0.0485063866
1845.00000	0.0430847630
1846.00000	0.0384640135
1847.00000	0.0346351601
1848.00000	0.0305121094
1849.00000	0.0254467428
1850.00000	0.0197951570
1851.00000	0.0144630196
1852.00000	0.0100038098
1853.00000	0.0062765400
1854.00000	0.0027073435
1855.00000	-0.0010941569
1856.00000	-0.0050696926
1857.00000	-0.0087944707
1858.00000	-0.0118312500
1859.00000	-0.0139280725
1860.00000	-0.0150537556
1861.00000	-0.0152982874
1862.00000	-0.0148222521
1863.00000	-0.0138510792
1864.00000	-0.0126568973
1865.00000	-0.0115074199
1866.00000	-0.0105662402
1867.00000	-0.0098522604
1868.00000	-0.0092486367
1869.00000	-0.0085842721
1870.00000	-0.0077143046
1871.00000	-0.0065855351
1872.00000	-0.0052352920
1873.00000	-0.0037671581
1874.00000	-0.0022926689
1875.00000	-0.0009060926
1876.00000	0.0003298837
1877.00000	0.0013595881
1878.00000	0.0021358361
1879.00000	0.0026213832
1880.00000	0.0028146158
1881.00000	0.0027566983
1882.00000	0.0025273054
1883.00000	0.0022232456
1884.00000	0.0019341795
1885.00000	0.0017276737
1886.00000	0.0016403712
1887.00000	0.0016802788
1888.00000	0.0018342342
1889.00000	0.0020799385
1890.00000	0.0023978804
1891.00000	0.0027726197
1892.00000	0.0031889470
1893.00000	0.0036186832
1894.00000	0.0040204534
1895.00000	0.0043410072
1896.00000	0.0045332839
1897.00000	0.0045674234
1898.00000	0.0044397209
1899.00000	0.0041692038
1900.00000	0.0037861164
1901.00000	0.0033219014
1902.00000	0.0028012234
1903.00000	0.0022453496
1904.00000	0.0016735441
1905.00000	0.0011116168
1906.00000	0.0005848554
1907.00000	0.0001140028
1908.00000	-0.0002955266
1909.00000	-0.0006550387
1910.00000	-0.0009933149
1911.00000	-0.0013428433
1912.00000	-0.0017317908
1913.00000	-0.0021674614
1914.00000	-0.0026361321
1915.00000	-0.0031004720
1916.00000	-0.0035142293
1917.00000	-0.0038322664
1918.00000	-0.0040256144
1919.00000	-0.0040855063
1920.00000	-0.0040230793
1921.00000	-0.0038624057
1922.00000	-0.0036318954
1923.00000	-0.0033586023
1924.00000	-0.0030621458
1925.00000	-0.0027541728
1926.00000	-0.0024364223
1927.00000	-0.0021029843
1928.00000	-0.0017410702
1929.00000	-0.0013376707
1930.00000	-0.0008823349
1931.00000	-0.0003779416
1932.00000	0.0001597597
1933.00000	0.0006992831
1934.00000	0.0012048160
1935.00000	0.0016425070
1936.00000	0.0019947421
1937.00000	0.0022608046
1938.00000	0.0024594553
1939.00000	0.0026200123
1940.00000	0.0027731038
1941.00000	0.0029388750
1942.00000	0.0031209837
1943.00000	0.0033030969
1944.00000	0.0034544256
1945.00000	0.0035369657
1946.00000	0.0035170245
1947.00000	0.0033730352
1948.00000	0.0031003566
1949.00000	0.0027120626
1950.00000	0.0022335602
1951.00000	0.0016988582
1952.00000	0.0011417720
1953.00000	0.0005955848
1954.00000	0.0000832303
1955.00000	-0.0003793725
1956.00000	-0.0007893997
1957.00000	-0.0011513156
1958.00000	-0.0014758243
1959.00000	-0.0017721863
1960.00000	-0.0020463448
1961.00000	-0.0022982957
1962.00000	-0.0025251196
1963.00000	-0.0027209371
1964.00000	-0.0028802641
1965.00000	-0.0029958370
1966.00000	-0.0030591444
1967.00000	-0.0030585271
1968.00000	-0.0029798811
1969.00000	-0.0028086251
1970.00000	-0.0025326018
1971.00000	-0.0021483197
1972.00000	-0.0016630894
1973.00000	-0.0010983292
1974.00000	-0.0004837448
1975.00000	0.0001434764
1976.00000	0.0007503271
1977.00000	0.0013071604
1978.00000	0.0017951380
1979.00000	0.0022011921
1980.00000	0.0025195251
1981.00000	0.0027425245
1982.00000	0.0028619324
1983.00000	0.0028680316
1984.00000	0.0027564869
1985.00000	0.0025351862
1986.00000	0.0022262435
1987.00000	0.0018632927
1988.00000	0.0014801264
1989.00000	0.0011026035
1990.00000	0.0007418432
1991.00000	0.0003976434
1992.00000	0.0000628125
1993.00000	-0.0002669860
1994.00000	-0.0005924469
1995.00000	-0.0009070669
1996.00000	-0.0012002600
1997.00000	-0.0014577841
1998.00000	-0.0016647214
1999.00000	-0.0018064543
2000.00000	-0.0018710542
2001.00000	-0.0018489350
2002.00000	-0.0017332577
2003.00000	-0.0015212760
2004.00000	-0.0012166286
2005.00000	-0.0008363713
2006.00000	-0.0004103048
2007.00000	0.0000175362
2008.00000	0.0004023410
2009.00000	0.0007070741
2010.00000	0.0009140880
2011.00000	0.0010253061
2012.00000	0.0010586492
2013.00000	0.0010380887
2014.00000	0.0009856996
2015.00000	0.0009166829
2016.00000	0.0008380780
2017.00000	0.0007510026
2018.00000	0.0006530448
2019.00000	0.0005416414
2020.00000	0.0004146864
2021.00000	0.0002715597
2022.00000	0.0001113311
2023.00000	-0.0000653153
2024.00000	-0.0002556092
2025.00000	-0.0004498750
2026.00000	-0.0006311620
2027.00000	-0.0007750713
2028.00000	-0.0008569793
2029.00000	-0.0008593225
2030.00000	-0.0007788165
2031.00000	-0.0006276953
2032.00000	-0.0004279184
2033.00000	-0.0002039432
2034.00000	0.0000262933
2035.00000	0.0002509013
2036.00000	0.0004624943
2037.00000	0.0006496470
2038.00000	0.0007962525
2039.00000	0.0008822202
2040.00000	0.0008923013
2041.00000	0.0008228901
2042.00000	0.0006852210
2043.00000	0.0005021633
2044.00000	0.0003000353
2045.00000	0.0001016975
2046.00000	-0.0000791012
2047.00000	-0.0002364491
2048.00000	-0.0003715193
2049.00000	-0.0004879841
2050.00000	-0.0005905696
2051.00000	-0.0006813557
2052.00000	-0.0007592575
2053.00000	-0.0008189452
2054.00000	-0.0008538683
2055.00000	-0.0008590708
2056.00000	-0.0008337786
2057.00000	-0.0007802970
2058.00000	-0.0006997988
2059.00000	-0.0005894211
2060.00000	-0.0004420379
2061.00000	-0.0002524807
2062.00000	-0.0000231700
2063.00000	0.0002304677
2064.00000	0.0004849717
2065.00000	0.0007141791
2066.00000	0.0008996850
2067.00000	0.0010336947
2068.00000	0.0011191836
2069.00000	0.0011644232
2070.00000	0.0011777892
2071.00000	0.0011638298
2072.00000	0.0011221354
2073.00000	0.0010488819
2074.00000	0.0009392874
2075.00000	0.0007920569
2076.00000	0.0006110221
2077.00000	0.0004072895
2078.00000	0.0001945031
2079.00000	-0.0000139912
2080.00000	-0.0002112007
2081.00000	-0.0003957220
2082.00000	-0.0005696469
2083.00000	-0.0007318930
2084.00000	-0.0008751619
2085.00000	-0.0009857374
2086.00000	-0.0010491675
2087.00000	-0.0010556903
2088.00000	-0.0010050543
2089.00000	-0.0009067337
2090.00000	-0.0007763013
2091.00000	-0.0006310136
2092.00000	-0.0004839549
2093.00000	-0.0003423716
2094.00000	-0.0002064353
2095.00000	-0.0000729366
2096.00000	0.0000612725
2097.00000	0.0001942959
2098.00000	0.0003188948
2099.00000	0.0004238561
2100.00000	0.0004995421
2101.00000	0.0005411849
2102.00000	0.0005503176
2103.00000	0.0005313487
2104.00000	0.0004874950
2105.00000	0.0004190224
2106.00000	0.0003250454
2107.00000	0.0002089585
2108.00000	0.0000808730
2109.00000	-0.0000422457
2110.00000	-0.0001422197
2111.00000	-0.0002050099
2112.00000	-0.0002251667
2113.00000	-0.0002057023
2114.00000	-0.0001562544
2115.00000	-0.0000903105
2116.00000	-0.0000215260
2117.00000	0.0000392785
2118.00000	0.0000877673
2119.00000	0.0001269110
2120.00000	0.0001650554
2121.00000	0.0002106015
2122.00000	0.0002671931
2123.00000	0.0003309973
2124.00000	0.0003928443
2125.00000	0.0004417066
2126.00000	0.0004691665
2127.00000	0.0004710284
2128.00000	0.0004472377
2129.00000	0.0004002150
2130.00000	0.0003325598
2131.00000	0.0002462621
2132.00000	0.0001423768
2133.00000	0.0000240984
2134.00000	-0.0001009139
2135.00000	-0.0002187908
2136.00000	-0.0003128741
2137.00000	-0.0003691390
2138.00000	-0.0003834466
2139.00000	-0.0003636672
2140.00000	-0.0003268762
2141.00000	-0.0002921469
2142.00000	-0.0002725220
2143.00000	-0.0002708691
2144.00000	-0.0002803316
2145.00000	-0.0002893670
2146.00000	-0.0002884364
2147.00000	-0.0002746732
2148.00000	-0.0002519413
2149.00000	-0.0002265516
2150.00000	-0.0002008248
2151.00000	-0.0001697536
2152.00000	-0.0001227476
2153.00000	-0.0000504700
2154.00000	0.0000483310
2155.00000	0.0001631478
2156.00000	0.0002746102
2157.00000	0.0003604723
2158.00000	0.0004033362
2159.00000	0.0003955696
2160.00000	0.0003414607
2161.00000	0.0002556642
2162.00000	0.0001581418
2163.00000	0.0000688497
2164.00000	0.0000017599
2165.00000	-0.0000367066
2166.00000	-0.0000471305
2167.00000	-0.0000338939
2168.00000	-0.0000024314
2169.00000	0.0000419952
2170.00000	0.0000945617
2171.00000	0.0001501237
2172.00000	0.0002033026
2173.00000	0.0002481389
2174.00000	0.0002792926
2175.00000	0.0002932507
2176.00000	0.0002906627
2177.00000	0.0002771890
2178.00000	0.0002618192
2179.00000	0.0002527821
2180.00000	0.0002527443
2181.00000	0.0002567946
2182.00000	0.0002542319
2183.00000	0.0002333792
2184.00000	0.0001863949
2185.00000	0.0001122125
2186.00000	0.0000160884
2187.00000	-0.0000921931
2188.00000	-0.0002016410
2189.00000	-0.0003021640
2190.00000	-0.0003869935
2191.00000	-0.0004519896
2192.00000	-0.0004951255
2193.00000	-0.0005142823
2194.00000	-0.0005069927
2195.00000	-0.0004716339
2196.00000	-0.0004098309
2197.00000	-0.0003285640
2198.00000	-0.0002390419
2199.00000	-0.0001541699
2200.00000	-0.0000838601
2201.00000	-0.0000322913
2202.00000	0.0000030296
2203.00000	0.0000290666
2204.00000	0.0000540678
2205.00000	0.0000837850
2206.00000	0.0001196697
2207.00000	0.0001585632
2208.00000	0.0001949498
2209.00000	0.0002235389
2210.00000	0.0002416635
2211.00000	0.0002494151
2212.00000	0.0002483662
2213.00000	0.0002395520
2214.00000	0.0002226614
2215.00000	0.0001970936
2216.00000	0.0001638542
2217.00000	0.0001273325
2218.00000	0.0000948037
2219.00000	0.0000742823
2220.00000	0.0000710255
2221.00000	0.0000849262
2222.00000	0.0001097227
2223.00000	0.0001348000
2224.00000	0.0001490480
2225.00000	0.0001449437
2226.00000	0.0001212114
2227.00000	0.0000826984
2228.00000	0.0000376515
2229.00000	-0.0000054744
2230.00000	-0.0000405447
2231.00000	-0.0000641682
2232.00000	-0.0000756886
2233.00000	-0.0000769863
2234.00000	-0.0000725240
2235.00000	-0.0000683226
2236.00000	-0.0000695346
2237.00000	-0.0000777149
2238.00000	-0.0000901676
2239.00000	-0.0001022935
2240.00000	-0.0001116367
2241.00000	-0.0001200107
2242.00000	-0.0001318149
2243.00000	-0.0001495711
2244.00000	-0.0001703940
2245.00000	-0.0001864438
2246.00000	-0.0001892191
2247.00000	-0.0001741908
2248.00000	-0.0001428217
2249.00000	-0.0001008893
2250.00000	-0.0000547332
2251.00000	-0.0000087375
2252.00000	0.0000354444
2253.00000	0.0000777101
2254.00000	0.0001182142
2255.00000	0.0001561918
2256.00000	0.0001899408
2257.00000	0.0002166455
2258.00000	0.0002333639
2259.00000	0.0002380933
2260.00000	0.0002313201
2261.00000	0.0002165857
2262.00000	0.0001994278
2263.00000	0.0001850094
2264.00000	0.0001752747
2265.00000	0.0001678315
2266.00000	0.0001567460
2267.00000	0.0001354402
2268.00000	0.0001000620
2269.00000	0.0000519792
2270.00000	-0.0000021456
2271.00000	-0.0000521274
2272.00000	-0.0000886715
2273.00000	-0.0001069743
2274.00000	-0.0001093209
2275.00000	-0.0001037235
2276.00000	-0.0000998792
2277.00000	-0.0001041302
2278.00000	-0.0001166783
2279.00000	-0.0001323484
2280.00000	-0.0001444610
2281.00000	-0.0001487068
2282.00000	-0.0001448709
2283.00000	-0.0001355986
2284.00000	-0.0001236067
2285.00000	-0.0001097096
2286.00000	-0.0000922703
2287.00000	-0.0000685104
2288.00000	-0.0000359772
2289.00000	0.0000058776
2290.00000	0.0000551721
2291.00000	0.0001069683
2292.00000	0.0001546368
2293.00000	0.0001915984
2294.00000	0.0002146326
2295.00000	0.0002254016
2296.00000	0.0002301333
2297.00000	0.0002360939
2298.00000	0.0002471270
2299.00000	0.0002607428
2300.00000	0.0002689339
2301.00000	0.0002622711
2302.00000	0.0002351806
2303.00000	0.0001890733
2304.00000	0.0001313906
2305.00000	0.0000718100
2306.00000	0.0000172871
2307.00000	-0.0000298069
2308.00000	-0.0000710940
2309.00000	-0.0001087827
2310.00000	-0.0001431830
2311.00000	-0.0001715264
2312.00000	-0.0001892682
2313.00000	-0.0001919301
2314.00000	-0.0001770933
2315.00000	-0.0001459676
2316.00000	-0.0001045301
2317.00000	-0.0000636060
2318.00000	-0.0000360432
2319.00000	-0.0000316457
2320.00000	-0.0000511209
2321.00000	-0.0000836377
2322.00000	-0.0001107250
2323.00000	-0.0001151616
2324.00000	-0.0000900676
2325.00000	-0.0000420852
2326.00000	0.0000138015
2327.00000	0.0000634616
2328.00000	0.0001016349
2329.00000	0.0001322117
2330.00000	0.0001627271
2331.00000	0.0001964152
2332.00000	0.0002286897
2333.00000	0.0002489088
2334.00000	0.0002463294
2335.00000	0.0002158843
2336.00000	0.0001609422
2337.00000	0.0000927083
2338.00000	0.0000263914
2339.00000	-0.0000233055
2340.00000	-0.0000476742
2341.00000	-0.0000466270
2342.00000	-0.0000285151
2343.00000	-0.0000057215
2344.00000	0.0000119016
2345.00000	0.0000218555
2346.00000	0.0000296236
2347.00000	0.0000442088
2348.00000	0.0000717199
2349.00000	0.0001107747
2350.00000	0.0001528088
2351.00000	0.0001862439
2352.00000	0.0002025134
2353.00000	0.0001995692
2354.00000	0.0001819101
2355.00000	0.0001572402
2356.00000	0.0001320375
2357.00000	0.0001087664
2358.00000	0.0000851740
2359.00000	0.0000563471
2360.00000	0.0000176838
2361.00000	-0.0000319173
2362.00000	-0.0000889029
2363.00000	-0.0001455193
2364.00000	-0.0001929615
2365.00000	-0.0002243621
2366.00000	-0.0002374074
2367.00000	-0.0002341896
2368.00000	-0.0002194252
2369.00000	-0.0001977511
2370.00000	-0.0001714482
2371.00000	-0.0001398601
2372.00000	-0.0000999671
2373.00000	-0.0000486253
2374.00000	0.0000152662
2375.00000	0.0000884900
2376.00000	0.0001637528
2377.00000	0.0002310736
2378.00000	0.0002813933
2379.00000	0.0003091205
2380.00000	0.0003137968
2381.00000	0.0002990990
2382.00000	0.0002708531
2383.00000	0.0002346324
2384.00000	0.0001940563
2385.00000	0.0001504637
2386.00000	0.0001038140
2387.00000	0.0000550002
2388.00000	0.0000072631
2389.00000	-0.0000331157
2390.00000	-0.0000592773
2391.00000	-0.0000667829
2392.00000	-0.0000565191
2393.00000	-0.0000348472
2394.00000	-0.0000110425
2395.00000	0.0000066110
2396.00000	0.0000142203
2397.00000	0.0000132518
2398.00000	0.0000090868
2399.00000	0.0000077964
2400.00000	0.0000128907
2401.00000	0.0000236886
2402.00000	0.0000362151
2403.00000	0.0000461303
2404.00000	0.0000519180
2405.00000	0.0000561199
2406.00000	0.0000638233
2407.00000	0.0000789907
2408.00000	0.0001011497
2409.00000	0.0001242024
2410.00000	0.0001385669
2411.00000	0.0001352847
2412.00000	0.0001105284
2413.00000	0.0000681106
2414.00000	0.0000183368
2415.00000	-0.0000259515
2416.00000	-0.0000550271
2417.00000	-0.0000662123
2418.00000	-0.0000641980
2419.00000	-0.0000574813
2420.00000	-0.0000534581
2421.00000	-0.0000550460
2422.00000	-0.0000605081
2423.00000	-0.0000658118
2424.00000	-0.0000675415
2425.00000	-0.0000644452
2426.00000	-0.0000574119
2427.00000	-0.0000483897
2428.00000	-0.0000388902
2429.00000	-0.0000287042
2430.00000	-0.0000150586
2431.00000	0.0000067517
2432.00000	0.0000410933
2433.00000	0.0000883096
2434.00000	0.0001426079
2435.00000	0.0001924527
2436.00000	0.0002253777
2437.00000	0.0002335351
2438.00000	0.0002177146
2439.00000	0.0001865932
2440.00000	0.0001518498
2441.00000	0.0001225149
2442.00000	0.0001012461
2443.00000	0.0000850036
2444.00000	0.0000684766
2445.00000	0.0000483849
2446.00000	0.0000254560
2447.00000	0.0000039746
2448.00000	-0.0000112382
2449.00000	-0.0000176654
2450.00000	-0.0000166747
2451.00000	-0.0000126338
2452.00000	-0.0000103286
2453.00000	-0.0000121412
2454.00000	-0.0000166948
2455.00000	-0.0000196412
2456.00000	-0.0000161724
2457.00000	-0.0000037563
2458.00000	0.0000164619
2459.00000	0.0000399605
2460.00000	0.0000607878
2461.00000	0.0000734743
2462.00000	0.0000747704
2463.00000	0.0000641437
2464.00000	0.0000435770
2465.00000	0.0000166478
2466.00000	-0.0000128336
2467.00000	-0.0000416748
2468.00000	-0.0000676456
2469.00000	-0.0000885479
2470.00000	-0.0001011642
2471.00000	-0.0001008700
2472.00000	-0.0000832106
2473.00000	-0.0000465915
2474.00000	0.0000055218
2475.00000	0.0000642696
2476.00000	0.0001185148
2477.00000	0.0001589255
2478.00000	0.0001819559
2479.00000	0.0001902581
2480.00000	0.0001905150
2481.00000	0.0001891550
2482.00000	0.0001889780
2483.00000	0.0001881876
2484.00000	0.0001824159
2485.00000	0.0001679046
2486.00000	0.0001437480
2487.00000	0.0001119951
2488.00000	0.0000756101
2489.00000	0.0000367853
2490.00000	-0.0000035890
2491.00000	-0.0000445006
2492.00000	-0.0000835080
2493.00000	-0.0001165843
2494.00000	-0.0001396491
2495.00000	-0.0001495890
2496.00000	-0.0001445982
2497.00000	-0.0001233369
2498.00000	-0.0000849020
2499.00000	-0.0000304956
2500.00000	0.0000348642
2501.00000	0.0001018030
2502.00000	0.0001595079
2503.00000	0.0001995977
2504.00000	0.0002192416
2505.00000	0.0002204112
2506.00000	0.0002072918
2507.00000	0.0001834586
2508.00000	0.0001512126
2509.00000	0.0001128595
2510.00000	0.0000716415
2511.00000	0.0000320671
2512.00000	-0.0000016280
2513.00000	-0.0000262042
2514.00000	-0.0000398452
2515.00000	-0.0000417146
2516.00000	-0.0000322893
2517.00000	-0.0000141607
2518.00000	0.0000075700
2519.00000	0.0000263253
2520.00000	0.0000371692
2521.00000	0.0000396624
2522.00000	0.0000385758
2523.00000	0.0000409990
2524.00000	0.0000513915
2525.00000	0.0000679652
2526.00000	0.0000834266
2527.00000	0.0000894971
2528.00000	0.0000822848
2529.00000	0.0000642893
2530.00000	0.0000419714
2531.00000	0.0000213549
2532.00000	0.0000052359
2533.00000	-0.0000059529
2534.00000	-0.0000115776
2535.00000	-0.0000092850
2536.00000	0.0000036735
2537.00000	0.0000276611
2538.00000	0.0000592910
2539.00000	0.0000923342
2540.00000	0.0001206532
2541.00000	0.0001400487
2542.00000	0.0001487986
2543.00000	0.0001465094
2544.00000	0.0001333499
2545.00000	0.0001102589
2546.00000	0.0000796534
2547.00000	0.0000460679
2548.00000	0.0000151886
2549.00000	-0.0000075280
2550.00000	-0.0000188147
2551.00000	-0.0000182972
2552.00000	-0.0000082665
2553.00000	0.0000076064
2554.00000	0.0000257580
2555.00000	0.0000434256
2556.00000	0.0000587126
2557.00000	0.0000698841
2558.00000	0.0000750713
2559.00000	0.0000726038
2560.00000	0.0000620409
2561.00000	0.0000450491
2562.00000	0.0000251830
2563.00000	0.0000065696
2564.00000	-0.0000079758
2565.00000	-0.0000176940
2566.00000	-0.0000233408
2567.00000	-0.0000254956
2568.00000	-0.0000238523
2569.00000	-0.0000178589
2570.00000	-0.0000083479
2571.00000	0.0000017515
2572.00000	0.0000089022
2573.00000	0.0000117031
2574.00000	0.0000128393
2575.00000	0.0000182126
2576.00000	0.0000336805
2577.00000	0.0000614049
2578.00000	0.0000986610
2579.00000	0.0001390504
2580.00000	0.0001756985
2581.00000	0.0002033133
2582.00000	0.0002192011
2583.00000	0.0002225902
2584.00000	0.0002137452
2585.00000	0.0001933543
2586.00000	0.0001624580
2587.00000	0.0001230033
2588.00000	0.0000782357
2589.00000	0.0000331389
2590.00000	-0.0000066109
2591.00000	-0.0000362129
2592.00000	-0.0000541002
2593.00000	-0.0000624145
2594.00000	-0.0000658700
2595.00000	-0.0000688873
2596.00000	-0.0000732613
2597.00000	-0.0000777439
2598.00000	-0.0000797434
2599.00000	-0.0000773827
2600.00000	-0.0000704689
2601.00000	-0.0000597262
2602.00000	-0.0000452226
2603.00000	-0.0000259207
2604.00000	-0.0000005535
2605.00000	0.0000305711
2606.00000	0.0000647809
2607.00000	0.0000978313
2608.00000	0.0001262128
2609.00000	0.0001484582
2610.00000	0.0001649278
2611.00000	0.0001755776
2612.00000	0.0001782031
2613.00000	0.0001685598
2614.00000	0.0001431173
2615.00000	0.0001025673
2616.00000	0.0000531094
2617.00000	0.0000050351
2618.00000	-0.0000319951
2619.00000	-0.0000526332
2620.00000	-0.0000579054
2621.00000	-0.0000536032
2622.00000	-0.0000468895
2623.00000	-0.0000428893
2624.00000	-0.0000427979
2625.00000	-0.0000443306
2626.00000	-0.0000436431
2627.00000	-0.0000375362
2628.00000	-0.0000246740
2629.00000	-0.0000054245
2630.00000	0.0000191749
2631.00000	0.0000479625
2632.00000	0.0000794036
2633.00000	0.0001105366
2634.00000	0.0001367843
2635.00000	0.0001524823
2636.00000	0.0001531858
2637.00000	0.0001374708
2638.00000	0.0001077434
2639.00000	0.0000694250
2640.00000	0.0000286806
2641.00000	-0.0000091841
2642.00000	-0.0000407816
2643.00000	-0.0000637255
2644.00000	-0.0000757086
2645.00000	-0.0000741892
2646.00000	-0.0000579682
2647.00000	-0.0000292420
2648.00000	0.0000059398
2649.00000	0.0000396943
2650.00000	0.0000663193
2651.00000	0.0000846801
2652.00000	0.0000975032
2653.00000	0.0001075176
2654.00000	0.0001144525
2655.00000	0.0001152459
2656.00000	0.0001075294
2657.00000	0.0000928280
2658.00000	0.0000762141
2659.00000	0.0000626745
2660.00000	0.0000532936
2661.00000	0.0000448159
2662.00000	0.0000328048
2663.00000	0.0000156187
2664.00000	-0.0000044627
2665.00000	-0.0000231454
2666.00000	-0.0000372972
2667.00000	-0.0000459756
2668.00000	-0.0000492642
2669.00000	-0.0000463851
2670.00000	-0.0000355725
2671.00000	-0.0000158445
2672.00000	0.0000112025
2673.00000	0.0000413768
2674.00000	0.0000700640
2675.00000	0.0000943469
2676.00000	0.0001133751
2677.00000	0.0001266841
2678.00000	0.0001324364
2679.00000	0.0001276122
2680.00000	0.0001105929
2681.00000	0.0000841037
2682.00000	0.0000556940
2683.00000	0.0000350688
2684.00000	0.0000290649
2685.00000	0.0000380958
2686.00000	0.0000559446
2687.00000	0.0000731468
2688.00000	0.0000819600
2689.00000	0.0000795523
2690.00000	0.0000680930
2691.00000	0.0000520223
2692.00000	0.0000346993
2693.00000	0.0000167556
2694.00000	-0.0000031727
2695.00000	-0.0000259841
2696.00000	-0.0000503093
2697.00000	-0.0000722598
2698.00000	-0.0000872224
2699.00000	-0.0000917367
2700.00000	-0.0000848309
2701.00000	-0.0000679308
2702.00000	-0.0000440006
2703.00000	-0.0000167377
2704.00000	0.0000101957
2705.00000	0.0000337567
2706.00000	0.0000525220
2707.00000	0.0000671687
2708.00000	0.0000804369
2709.00000	0.0000956902
2710.00000	0.0001149362
2711.00000	0.0001370608
2712.00000	0.0001577471
2713.00000	0.0001710962
2714.00000	0.0001724880
2715.00000	0.0001606770
2716.00000	0.0001379086
2717.00000	0.0001081281
2718.00000	0.0000743722
2719.00000	0.0000378512
2720.00000	-0.0000013864
2721.00000	-0.0000422680
2722.00000	-0.0000815244
2723.00000	-0.0001138291
2724.00000	-0.0001336265
2725.00000	-0.0001367823
2726.00000	-0.0001217413
2727.00000	-0.0000900094
2728.00000	-0.0000462453
2729.00000	0.0000020623
2730.00000	0.0000463671
2731.00000	0.0000794098
2732.00000	0.0000982625
2733.00000	0.0001051775
2734.00000	0.0001060594
2735.00000	0.0001068052
2736.00000	0.0001100601
2737.00000	0.0001142849
2738.00000	0.0001157127
2739.00000	0.0001114049
2740.00000	0.0001010997
2741.00000	0.0000866810
2742.00000	0.0000699164
2743.00000	0.0000507682
2744.00000	0.0000275762
2745.00000	-0.0000007604
2746.00000	-0.0000328825
2747.00000	-0.0000645009
2748.00000	-0.0000902367
2749.00000	-0.0001056337
2750.00000	-0.0001084180
2751.00000	-0.0000981132
2752.00000	-0.0000754403
2753.00000	-0.0000426250
2754.00000	-0.0000040078
2755.00000	0.0000336686
2756.00000	0.0000635761
2757.00000	0.0000817542
2758.00000	0.0000893065
2759.00000	0.0000911009
2760.00000	0.0000920883
2761.00000	0.0000938558
2762.00000	0.0000942820
2763.00000	0.0000903083
2764.00000	0.0000811690
2765.00000	0.0000690662
2766.00000	0.0000568959
2767.00000	0.0000455226
2768.00000	0.0000332417
2769.00000	0.0000180881
2770.00000	0.0000003147
2771.00000	-0.0000171845
2772.00000	-0.0000312948
2773.00000	-0.0000411675
2774.00000	-0.0000485294
2775.00000	-0.0000551090
2776.00000	-0.0000597502
2777.00000	-0.0000579015
2778.00000	-0.0000443795
2779.00000	-0.0000173994
2780.00000	0.0000189728
2781.00000	0.0000557449
2782.00000	0.0000831668
2783.00000	0.0000951671
2784.00000	0.0000920892
2785.00000	0.0000798191
2786.00000	0.0000659607
2787.00000	0.0000552877
2788.00000	0.0000473084
2789.00000	0.0000376251
2790.00000	0.0000219609
2791.00000	0.0000001664
2792.00000	-0.0000230474
2793.00000	-0.0000409688
2794.00000	-0.0000494054
2795.00000	-0.0000493636
2796.00000	-0.0000464041
2797.00000	-0.0000474007
2798.00000	-0.0000569794
2799.00000	-0.0000752979
2800.00000	-0.0000978970
2801.00000	-0.0001169829
2802.00000	-0.0001242585
2803.00000	-0.0001142221
2804.00000	-0.0000868863
2805.00000	-0.0000481266
2806.00000	-0.0000067802
2807.00000	0.0000294348
2808.00000	0.0000572822
2809.00000	0.0000777765
2810.00000	0.0000936366
2811.00000	0.0001060317
2812.00000	0.0001134794
2813.00000	0.0001129140
2814.00000	0.0001017998
2815.00000	0.0000797759
2816.00000	0.0000491089
2817.00000	0.0000145643
2818.00000	-0.0000176262
2819.00000	-0.0000408375
2820.00000	-0.0000506078
2821.00000	-0.0000466971
2822.00000	-0.0000341051
2823.00000	-0.0000215206
2824.00000	-0.0000172438
2825.00000	-0.0000249873
2826.00000	-0.0000418183
2827.00000	-0.0000597753
2828.00000	-0.0000704979
2829.00000	-0.0000695827
2830.00000	-0.0000585508
2831.00000	-0.0000431971
2832.00000	-0.0000300001
2833.00000	-0.0000231613
2834.00000	-0.0000234777
2835.00000	-0.0000290935
2836.00000	-0.0000367847
2837.00000	-0.0000430913
2838.00000	-0.0000454380
2839.00000	-0.0000434319
2840.00000	-0.0000395321
2841.00000	-0.0000381740
2842.00000	-0.0000430498
2843.00000	-0.0000540298
2844.00000	-0.0000662907
2845.00000	-0.0000724968
2846.00000	-0.0000669520
2847.00000	-0.0000490178
2848.00000	-0.0000234757
2849.00000	0.0000018000
2850.00000	0.0000195548
2851.00000	0.0000258091
2852.00000	0.0000209405
2853.00000	0.0000090242
2854.00000	-0.0000039984
2855.00000	-0.0000126714
2856.00000	-0.0000144073
2857.00000	-0.0000104410
2858.00000	-0.0000048115
2859.00000	-0.0000016450
2860.00000	-0.0000022665
2861.00000	-0.0000042887
2862.00000	-0.0000032201
2863.00000	0.0000042046
2864.00000	0.0000172629
2865.00000	0.0000307297
2866.00000	0.0000372211
2867.00000	0.0000308835
2868.00000	0.0000107945
2869.00000	-0.0000179708
2870.00000	-0.0000462624
2871.00000	-0.0000648333
2872.00000	-0.0000689405
2873.00000	-0.0000607202
2874.00000	-0.0000482207
2875.00000	-0.0000412258
2876.00000	-0.0000459043
2877.00000	-0.0000614950
2878.00000	-0.0000808318
2879.00000	-0.0000942567
2880.00000	-0.0000949134
2881.00000	-0.0000818759
2882.00000	-0.0000597713
2883.00000	-0.0000356672
2884.00000	-0.0000149379
2885.00000	0.0000006945
2886.00000	0.0000128039
2887.00000	0.0000237658
2888.00000	0.0000343603
2889.00000	0.0000426734
2890.00000	0.0000449257
2891.00000	0.0000371975
2892.00000	0.0000173586
2893.00000	-0.0000136488
2894.00000	-0.0000513844
2895.00000	-0.0000884360
2896.00000	-0.0001163839
2897.00000	-0.0001284751
2898.00000	-0.0001222877
2899.00000	-0.0001004983
2900.00000	-0.0000693448
2901.00000	-0.0000358487
2902.00000	-0.0000052173
2903.00000	0.0000194361
2904.00000	0.0000364366
2905.00000	0.0000448269
2906.00000	0.0000447847
2907.00000	0.0000382699
2908.00000	0.0000286409
2909.00000	0.0000189471
2910.00000	0.0000102268
2911.00000	0.0000017005
2912.00000	-0.0000071863
2913.00000	-0.0000146437
2914.00000	-0.0000167269
2915.00000	-0.0000102498
2916.00000	0.0000038841
2917.00000	0.0000197209
2918.00000	0.0000291152
2919.00000	0.0000263535
2920.00000	0.0000113074
2921.00000	-0.0000109223
2922.00000	-0.0000336313
2923.00000	-0.0000521362
2924.00000	-0.0000655092
2925.00000	-0.0000753509
2926.00000	-0.0000837250
2927.00000	-0.0000915538
2928.00000	-0.0000987075
2929.00000	-0.0001045817
2930.00000	-0.0001086286
2931.00000	-0.0001100918
2932.00000	-0.0001079412
2933.00000	-0.0001013236
2934.00000	-0.0000903943
2935.00000	-0.0000766873
2936.00000	-0.0000623698
2937.00000	-0.0000487591
2938.00000	-0.0000349617
2939.00000	-0.0000183138
2940.00000	0.0000038460
2941.00000	0.0000315241
2942.00000	0.0000606531
2943.00000	0.0000834678
2944.00000	0.0000913383
2945.00000	0.0000782622
2946.00000	0.0000437940
2947.00000	-0.0000061262
2948.00000	-0.0000612592
2949.00000	-0.0001102395
2950.00000	-0.0001448224
2951.00000	-0.0001616127
2952.00000	-0.0001622678
2953.00000	-0.0001511213
2954.00000	-0.0001323073
2955.00000	-0.0001079589
2956.00000	-0.0000780375
2957.00000	-0.0000421508
2958.00000	-0.0000013049
2959.00000	0.0000408979
2960.00000	0.0000791665
2961.00000	0.0001079383
2962.00000	0.0001236249
2963.00000	0.0001253407
2964.00000	0.0001150677
2965.00000	0.0000967027
2966.00000	0.0000745659
2967.00000	0.0000519950
2968.00000	0.0000300446
2969.00000	0.0000075518
2970.00000	-0.0000178982
2971.00000	-0.0000478126
2972.00000	-0.0000812764
2973.00000	-0.0001145451
2974.00000	-0.0001426770
2975.00000	-0.0001613175
2976.00000	-0.0001683115
2977.00000	-0.0001636644
2978.00000	-0.0001488057
2979.00000	-0.0001257610
2980.00000	-0.0000966832
2981.00000	-0.0000641750
2982.00000	-0.0000312117
2983.00000	-0.0000012523
2984.00000	0.0000225196
2985.00000	0.0000376372
2986.00000	0.0000431028
2987.00000	0.0000395124
2988.00000	0.0000287397
2989.00000	0.0000131039
2990.00000	-0.0000055141
2991.00000	-0.0000256120
2992.00000	-0.0000455355
2993.00000	-0.0000625357
2994.00000	-0.0000732147
2995.00000	-0.0000750596
2996.00000	-0.0000685146
2997.00000	-0.0000575980
2998.00000	-0.0000480698
2999.00000	-0.0000442128
3000.00000	-0.0000463920
3001.00000	-0.0000512068
3002.00000	-0.0000540230
3003.00000	-0.0000516588
3004.00000	-0.0000434688
3005.00000	-0.0000303800
3006.00000	-0.0000133079
3007.00000	0.0000069770
3008.00000	0.0000290557
3009.00000	0.0000498365
3010.00000	0.0000653865
3011.00000	0.0000729784
3012.00000	0.0000729569
3013.00000	0.0000683086
3014.00000	0.0000622854
3015.00000	0.0000558729
3016.00000	0.0000473735
3017.00000	0.0000344041
3018.00000	0.0000167437
3019.00000	-0.0000024079
3020.00000	-0.0000181526
3021.00000	-0.0000270121
3022.00000	-0.0000296702
3023.00000	-0.0000307861
3024.00000	-0.0000363728
3025.00000	-0.0000502794
3026.00000	-0.0000720627
3027.00000	-0.0000971937
3028.00000	-0.0001194387
3029.00000	-0.0001333650
3030.00000	-0.0001362809
3031.00000	-0.0001285539
3032.00000	-0.0001129063
3033.00000	-0.0000931944
3034.00000	-0.0000727399
3035.00000	-0.0000532102
3036.00000	-0.0000340330
3037.00000	-0.0000135917
3038.00000	0.0000088521
3039.00000	0.0000310965
3040.00000	0.0000482533
3041.00000	0.0000550557
3042.00000	0.0000493569
3043.00000	0.0000339674
3044.00000	0.0000156517
3045.00000	0.0000019039
3046.00000	-0.0000026803
3047.00000	0.0000020549
3048.00000	0.0000123244
3049.00000	0.0000225104
3050.00000	0.0000276312
3051.00000	0.0000251031
3052.00000	0.0000156417
3053.00000	0.0000027643
3054.00000	-0.0000088777
3055.00000	-0.0000155116
3056.00000	-0.0000156335
3057.00000	-0.0000101188
3058.00000	-0.0000013181
3059.00000	0.0000080133
3060.00000	0.0000156251
3061.00000	0.0000205580
3062.00000	0.0000238564
3063.00000	0.0000283546
3064.00000	0.0000368893
3065.00000	0.0000492184
3066.00000	0.0000601060
3067.00000	0.0000605504
3068.00000	0.0000427892
3069.00000	0.0000060136
3070.00000	-0.0000414338
3071.00000	-0.0000847730
3072.00000	-0.0001103248
3073.00000	-0.0001119099
3074.00000	-0.0000936567
3075.00000	-0.0000670105
3076.00000	-0.0000441773
3077.00000	-0.0000322713
3078.00000	-0.0000306289
3079.00000	-0.0000329690
3080.00000	-0.0000322379
3081.00000	-0.0000252023
3082.00000	-0.0000139683
3083.00000	-0.0000039525
3084.00000	0.0000001945
3085.00000	-0.0000022780
3086.00000	-0.0000078134
3087.00000	-0.0000107917
3088.00000	-0.0000067145
3089.00000	0.0000055669
3090.00000	0.0000234391
3091.00000	0.0000416906
3092.00000	0.0000547737
3093.00000	0.0000589716
3094.00000	0.0000541114
3095.00000	0.0000436086
3096.00000	0.0000328453
3097.00000	0.0000265856
3098.00000	0.0000267119
3099.00000	0.0000317949
3100.00000	0.0000384705
3101.00000	0.0000433808
3102.00000	0.0000445392
3103.00000	0.0000414798
3104.00000	0.0000348511
3105.00000	0.0000262066
3106.00000	0.0000177421
3107.00000	0.0000116732
3108.00000	0.0000088552
3109.00000	0.0000079911
3110.00000	0.0000063571
3111.00000	0.0000022942
3112.00000	-0.0000025917
3113.00000	-0.0000036429
3114.00000	0.0000036138
3115.00000	0.0000194343
3116.00000	0.0000384005
3117.00000	0.0000517829
3118.00000	0.0000525594
3119.00000	0.0000392776
3120.00000	0.0000162475
3121.00000	-0.0000094689
3122.00000	-0.0000322305
3123.00000	-0.0000497313
3124.00000	-0.0000625947
3125.00000	-0.0000721393
3126.00000	-0.0000786399
3127.00000	-0.0000808641
3128.00000	-0.0000770639
3129.00000	-0.0000662982
3130.00000	-0.0000491309
3131.00000	-0.0000275777
3132.00000	-0.0000043450
3133.00000	0.0000174300
3134.00000	0.0000345173
3135.00000	0.0000436571
3136.00000	0.0000427101
3137.00000	0.0000321394
3138.00000	0.0000159091
3139.00000	0.0000004347
3140.00000	-0.0000084718
3141.00000	-0.0000084800
3142.00000	-0.0000014672
3143.00000	0.0000087728
3144.00000	0.0000198918
3145.00000	0.0000323954
3146.00000	0.0000481092
3147.00000	0.0000669922
3148.00000	0.0000857816
3149.00000	0.0000994932
3150.00000	0.0001048531
3151.00000	0.0001022294
3152.00000	0.0000945694
3153.00000	0.0000845313
3154.00000	0.0000724924
3155.00000	0.0000573992
3156.00000	0.0000390188
3157.00000	0.0000194983
3158.00000	0.0000021835
3159.00000	-0.0000106134
3160.00000	-0.0000191986
3161.00000	-0.0000254336
3162.00000	-0.0000302784
3163.00000	-0.0000320611
3164.00000	-0.0000271981
3165.00000	-0.0000127296
3166.00000	0.0000111344
3167.00000	0.0000402595
3168.00000	0.0000681085
3169.00000	0.0000881792
3170.00000	0.0000965186
3171.00000	0.0000924428
3172.00000	0.0000779882
3173.00000	0.0000564387
3174.00000	0.0000307982
3175.00000	0.0000033868
3176.00000	-0.0000240813
3177.00000	-0.0000497381
3178.00000	-0.0000714680
3179.00000	-0.0000869032
3180.00000	-0.0000938439
3181.00000	-0.0000904005
3182.00000	-0.0000754057
3183.00000	-0.0000492972
3184.00000	-0.0000148733
3185.00000	0.0000227022
3186.00000	0.0000577282
3187.00000	0.0000861554
3188.00000	0.0001073939
3189.00000	0.0001231554
3190.00000	0.0001351577
3191.00000	0.0001430122
3192.00000	0.0001445118
3193.00000	0.0001377501
3194.00000	0.0001233100
3195.00000	0.0001044854
3196.00000	0.0000853333
3197.00000	0.0000684930
3198.00000	0.0000540240
3199.00000	0.0000404750
3200.00000	0.0000267366
3201.00000	0.0000137440
3202.00000	0.0000044685
3203.00000	0.0000024758
3204.00000	0.0000095506
3205.00000	0.0000240210
3206.00000	0.0000411917
3207.00000	0.0000557846
3208.00000	0.0000651194
3209.00000	0.0000702906
3210.00000	0.0000744775
3211.00000	0.0000794281
3212.00000	0.0000831705
3213.00000	0.0000811221
3214.00000	0.0000699016
3215.00000	0.0000506798
3216.00000	0.0000291338
3217.00000	0.0000120890
3218.00000	0.0000033580
3219.00000	0.0000021340
3220.00000	0.0000046326
3221.00000	0.0000073176
3222.00000	0.0000091392
3223.00000	0.0000112994
3224.00000	0.0000155323
3225.00000	0.0000223153
3226.00000	0.0000302425
3227.00000	0.0000364176
3228.00000	0.0000377320
3229.00000	0.0000322969
3230.00000	0.0000205735
3231.00000	0.0000056503
3232.00000	-0.0000080401
3233.00000	-0.0000165582
3234.00000	-0.0000179879
3235.00000	-0.0000121670
3236.00000	0.0000005177
3237.00000	0.0000198229
3238.00000	0.0000449442
3239.00000	0.0000728491
3240.00000	0.0000985488
3241.00000	0.0001172161
3242.00000	0.0001278171
3243.00000	0.0001339910
3244.00000	0.0001415800
3245.00000	0.0001538484
3246.00000	0.0001684929
3247.00000	0.0001787795
3248.00000	0.0001781596
3249.00000	0.0001646409
3250.00000	0.0001418740
3251.00000	0.0001165534
3252.00000	0.0000940810
3253.00000	0.0000759724
3254.00000	0.0000598004
3255.00000	0.0000418998
3256.00000	0.0000203168
3257.00000	-0.0000032971
3258.00000	-0.0000243522
3259.00000	-0.0000374138
3260.00000	-0.0000391200
3261.00000	-0.0000295296
3262.00000	-0.0000115682
3263.00000	0.0000108798
3264.00000	0.0000350438
3265.00000	0.0000594296
3266.00000	0.0000830450
3267.00000	0.0001038237
3268.00000	0.0001186594
3269.00000	0.0001244403
3270.00000	0.0001198309
3271.00000	0.0001060157
3272.00000	0.0000859904
3273.00000	0.0000632517
3274.00000	0.0000404287
3275.00000	0.0000193109
3276.00000	0.0000012577
3277.00000	-0.0000120731
3278.00000	-0.0000187728
3279.00000	-0.0000170388
3280.00000	-0.0000059170
3281.00000	0.0000140364
3282.00000	0.0000404879
3283.00000	0.0000692063
3284.00000	0.0000952618
3285.00000	0.0001145282
3286.00000	0.0001257541
3287.00000	0.0001311862
3288.00000	0.0001353417
3289.00000	0.0001419441
3290.00000	0.0001510301
3291.00000	0.0001581364
3292.00000	0.0001566715
3293.00000	0.0001421808
3294.00000	0.0001159021
3295.00000	0.0000852969
3296.00000	0.0000604542
3297.00000	0.0000490365
3298.00000	0.0000519591
3299.00000	0.0000631727
3300.00000	0.0000733877
3301.00000	0.0000755608
3302.00000	0.0000690219
3303.00000	0.0000595069
3304.00000	0.0000552185
3305.00000	0.0000614069
3306.00000	0.0000768722
3307.00000	0.0000944580
3308.00000	0.0001051558
3309.00000	0.0001027704
3310.00000	0.0000866440
3311.00000	0.0000613038
3312.00000	0.0000338713
3313.00000	0.0000114216
3314.00000	-0.0000010856
3315.00000	-0.0000018510
3316.00000	0.0000070719
3317.00000	0.0000202022
3318.00000	0.0000310131
3319.00000	0.0000356329
3320.00000	0.0000358623
3321.00000	0.0000386638
3322.00000	0.0000515587
3323.00000	0.0000764841
3324.00000	0.0001069883
3325.00000	0.0001307779
3326.00000	0.0001370948
3327.00000	0.0001232889
3328.00000	0.0000964879
3329.00000	0.0000692418
3330.00000	0.0000521238
3331.00000	0.0000486299
3332.00000	0.0000545641
3333.00000	0.0000616920
3334.00000	0.0000624086
3335.00000	0.0000528972
3336.00000	0.0000340556
3337.00000	0.0000110513
3338.00000	-0.0000081835
3339.00000	-0.0000151130
3340.00000	-0.0000042071
3341.00000	0.0000236931
3342.00000	0.0000605517
3343.00000	0.0000940354
3344.00000	0.0001139347
3345.00000	0.0001175790
3346.00000	0.0001111947
3347.00000	0.0001057295
3348.00000	0.0001099095
3349.00000	0.0001248668
3350.00000	0.0001435735
3351.00000	0.0001548424
3352.00000	0.0001496010
3353.00000	0.0001254894
3354.00000	0.0000879087
3355.00000	0.0000476964
3356.00000	0.0000161636
3357.00000	0.0000007978
3358.00000	0.0000018464
3359.00000	0.0000122768
3360.00000	0.0000207055
3361.00000	0.0000168564
3362.00000	-0.0000025567
3363.00000	-0.0000308539
3364.00000	-0.0000538844
3365.00000	-0.0000571832
3366.00000	-0.0000343796
3367.00000	0.0000086684
3368.00000	0.0000569459
3369.00000	0.0000943201
3370.00000	0.0001122888
3371.00000	0.0001131872
3372.00000	0.0001071789
3373.00000	0.0001049451
3374.00000	0.0001112109
3375.00000	0.0001224306
3376.00000	0.0001295013
3377.00000	0.0001231878
3378.00000	0.0000994442
3379.00000	0.0000617756
3380.00000	0.0000196819
3381.00000	-0.0000152888
3382.00000	-0.0000346741
3383.00000	-0.0000356570
3384.00000	-0.0000214710
3385.00000	0.0000007477
3386.00000	0.0000233353
3387.00000	0.0000409069
3388.00000	0.0000526170
3389.00000	0.0000622074
3390.00000	0.0000761635
3391.00000	0.0000998831
3392.00000	0.0001340016
3393.00000	0.0001724676
3394.00000	0.0002045087
3395.00000	0.0002190436
3396.00000	0.0002099460
3397.00000	0.0001788022
3398.00000	0.0001339732
3399.00000	0.0000870495
3400.00000	0.0000472535
3401.00000	0.0000183487
3402.00000	-0.0000025822
3403.00000	-0.0000220226
3404.00000	-0.0000454630
3405.00000	-0.0000729936
3406.00000	-0.0000983778
3407.00000	-0.0001115940
3408.00000	-0.0001043363
3409.00000	-0.0000745931
3410.00000	-0.0000280679
3411.00000	0.0000242332
3412.00000	0.0000712782
3413.00000	0.0001060021
3414.00000	0.0001274454
3415.00000	0.0001388420
3416.00000	0.0001444155
3417.00000	0.0001460397
3418.00000	0.0001421219
3419.00000	0.0001288361
3420.00000	0.0001028997
3421.00000	0.0000644987
3422.00000	0.0000181575
3423.00000	-0.0000278514
3424.00000	-0.0000645365
3425.00000	-0.0000846856
3426.00000	-0.0000852719
3427.00000	-0.0000676290
3428.00000	-0.0000363838
3429.00000	0.0000022273
3430.00000	0.0000424686
3431.00000	0.0000800397
3432.00000	0.0001130345
3433.00000	0.0001413135
3434.00000	0.0001659281
3435.00000	0.0001873892
3436.00000	0.0002044699
3437.00000	0.0002135176
3438.00000	0.0002095963
3439.00000	0.0001889439
3440.00000	0.0001516448
3441.00000	0.0001032599
3442.00000	0.0000534350
3443.00000	0.0000127723
3444.00000	-0.0000118257
3445.00000	-0.0000197618
3446.00000	-0.0000166708
3447.00000	-0.0000107769
3448.00000	-0.0000077865
3449.00000	-0.0000072952
3450.00000	-0.0000030360
3451.00000	0.0000127764
3452.00000	0.0000437674
3453.00000	0.0000856745
3454.00000	0.0001276649
3455.00000	0.0001567950
3456.00000	0.0001641582
3457.00000	0.0001478294
3458.00000	0.0001124763
3459.00000	0.0000665737
3460.00000	0.0000189869
3461.00000	-0.0000228754
3462.00000	-0.0000544840
3463.00000	-0.0000741300
3464.00000	-0.0000831084
3465.00000	-0.0000844405
3466.00000	-0.0000808026
3467.00000	-0.0000724378
3468.00000	-0.0000564827
3469.00000	-0.0000289876
3470.00000	0.0000118230
3471.00000	0.0000625184
3472.00000	0.0001149719
3473.00000	0.0001588074
3474.00000	0.0001861785
3475.00000	0.0001943088
3476.00000	0.0001859321
3477.00000	0.0001670666
3478.00000	0.0001439701
3479.00000	0.0001210782
3480.00000	0.0000999584
3481.00000	0.0000799185
3482.00000	0.0000593809
3483.00000	0.0000380271
3484.00000	0.0000181829
3485.00000	0.0000050918
3486.00000	0.0000046856
3487.00000	0.0000203449
3488.00000	0.0000501601
3489.00000	0.0000863929
3490.00000	0.0001185053
3491.00000	0.0001373244
3492.00000	0.0001392984
3493.00000	0.0001276753
3494.00000	0.0001105496
3495.00000	0.0000964509
3496.00000	0.0000895862
3497.00000	0.0000877454
3498.00000	0.0000836543
3499.00000	0.0000696730
3500.00000	0.0000427489
3501.00000	0.0000069685
3502.00000	-0.0000283809
3503.00000	-0.0000530029
3504.00000	-0.0000606580
3505.00000	-0.0000513030
3506.00000	-0.0000304402
3507.00000	-0.0000064477
3508.00000	0.0000130411
3509.00000	0.0000238442
3510.00000	0.0000267149
3511.00000	0.0000262850
3512.00000	0.0000280336
3513.00000	0.0000344351
3514.00000	0.0000430215
3515.00000	0.0000478654
3516.00000	0.0000438188
3517.00000	0.0000304841
3518.00000	0.0000130721
3519.00000	-0.0000002522
3520.00000	-0.0000027198
3521.00000	0.0000079326
3522.00000	0.0000289240
3523.00000	0.0000539577
3524.00000	0.0000759973
3525.00000	0.0000897320
3526.00000	0.0000935880
3527.00000	0.0000900612
3528.00000	0.0000842927
3529.00000	0.0000812244
3530.00000	0.0000826759
3531.00000	0.0000864025
3532.00000	0.0000875095
3533.00000	0.0000814736
3534.00000	0.0000667883
3535.00000	0.0000459720
3536.00000	0.0000242390
3537.00000	0.0000072322
3538.00000	-0.0000018271
3539.00000	-0.0000035715
3540.00000	-0.0000021912
3541.00000	-0.0000028805
3542.00000	-0.0000084539
3543.00000	-0.0000170934
3544.00000	-0.0000230614
3545.00000	-0.0000200834
3546.00000	-0.0000054239
3547.00000	0.0000181318
3548.00000	0.0000437052
3549.00000	0.0000635646
3550.00000	0.0000725146
3551.00000	0.0000694444
3552.00000	0.0000572918
3553.00000	0.0000418268
3554.00000	0.0000296463
3555.00000	0.0000254174
3556.00000	0.0000289625
3557.00000	0.0000344080
3558.00000	0.0000327796
3559.00000	0.0000174932
3560.00000	-0.0000108051
3561.00000	-0.0000435969
3562.00000	-0.0000693891
3563.00000	-0.0000803803
3564.00000	-0.0000768649
3565.00000	-0.0000658149
3566.00000	-0.0000554127
3567.00000	-0.0000495159
3568.00000	-0.0000454862
3569.00000	-0.0000363294
3570.00000	-0.0000149551
3571.00000	0.0000217382
3572.00000	0.0000712375
3573.00000	0.0001254443
3574.00000	0.0001734651
3575.00000	0.0002048908
3576.00000	0.0002138486
3577.00000	0.0002009388
3578.00000	0.0001724394
3579.00000	0.0001367131
3580.00000	0.0000997052
3581.00000	0.0000629045
3582.00000	0.0000242215
3583.00000	-0.0000181611
3584.00000	-0.0000627232
3585.00000	-0.0001032240
3586.00000	-0.0001307771
3587.00000	-0.0001369973
3588.00000	-0.0001176663
3589.00000	-0.0000748762
3590.00000	-0.0000168649
3591.00000	0.0000439210
3592.00000	0.0000955771
3593.00000	0.0001304477
3594.00000	0.0001478930
3595.00000	0.0001524765
3596.00000	0.0001499582
3597.00000	0.0001428378
3598.00000	0.0001287891
3599.00000	0.0001027652
3600.00000	0.0000610591
3601.00000	0.0000051363
3602.00000	-0.0000579304
3603.00000	-0.0001170168
3604.00000	-0.0001613439
3605.00000	-0.0001837387
3606.00000	-0.0001831505
3607.00000	-0.0001641109
3608.00000	-0.0001340712
3609.00000	-0.0000997197
3610.00000	-0.0000636446
3611.00000	-0.0000242119
3612.00000	0.0000223703
3613.00000	0.0000774392
3614.00000	0.0001367887
3615.00000	0.0001898461
3616.00000	0.0002233455
3617.00000	0.0002268906
3618.00000	0.0001984899
3619.00000	0.0001461865
3620.00000	0.0000844483
3621.00000	0.0000279859
3622.00000	-0.0000149292
3623.00000	-0.0000438641
3624.00000	-0.0000634444
3625.00000	-0.0000774886
3626.00000	-0.0000850576
3627.00000	-0.0000802864
3628.00000	-0.0000562977
3629.00000	-0.0000103958
3630.00000	0.0000529105
3631.00000	0.0001219534
3632.00000	0.0001823484
3633.00000	0.0002218299
3634.00000	0.0002351717
3635.00000	0.0002251265
3636.00000	0.0001998187
3637.00000	0.0001676589
3638.00000	0.0001326617
3639.00000	0.0000936797
3640.00000	0.0000468498
3641.00000	-0.0000092425
3642.00000	-0.0000707788
3643.00000	-0.0001285884
3644.00000	-0.0001721371
3645.00000	-0.0001934234
3646.00000	-0.0001899571
3647.00000	-0.0001645835
3648.00000	-0.0001234704
3649.00000	-0.0000737581
3650.00000	-0.0000211327
3651.00000	0.0000307372
3652.00000	0.0000808029
3653.00000	0.0001288505
3654.00000	0.0001741324
3655.00000	0.0002129756
3656.00000	0.0002386462
3657.00000	0.0002428416
3658.00000	0.0002195456
3659.00000	0.0001691108
3660.00000	0.0000999972
3661.00000	0.0000274158
3662.00000	-0.0000330812
3663.00000	-0.0000714984
3664.00000	-0.0000877050
3665.00000	-0.0000892959
3666.00000	-0.0000853296
3667.00000	-0.0000794791
3668.00000	-0.0000674842
3669.00000	-0.0000409504
3670.00000	0.0000053159
3671.00000	0.0000673597
3672.00000	0.0001323327
3673.00000	0.0001840612
3674.00000	0.0002116003
3675.00000	0.0002138277
3676.00000	0.0001988995
3677.00000	0.0001783756
3678.00000	0.0001602325
3679.00000	0.0001452415
3680.00000	0.0001279338
3681.00000	0.0001017162
