4000.11610	0.90603
3998.18741	0.90592
3996.25871	0.90626
3994.33001	0.90656
3992.40132	0.90650
3990.47262	0.90647
3988.54393	0.90651
3986.61523	0.90673
3984.68653	0.90715
3982.75784	0.90743
3980.82914	0.90737
3978.90044	0.90738
3976.97175	0.90773
3975.04305	0.90799
3973.11436	0.90800
3971.18566	0.90809
3969.25696	0.90835
3967.32827	0.90851
3965.39957	0.90870
3963.47087	0.90910
3961.54218	0.90937
3959.61348	0.90921
3957.68479	0.90931
3955.75609	0.90948
3953.82739	0.90962
3951.89870	0.90982
3949.97000	0.91016
3948.04130	0.91040
3946.11261	0.91040
3944.18391	0.91091
3942.25521	0.91134
3940.32652	0.91107
3938.39782	0.91116
3936.46913	0.91132
3934.54043	0.91163
3932.61173	0.91218
3930.68304	0.91220
3928.75434	0.91237
3926.82564	0.91279
3924.89695	0.91330
3922.96825	0.91309
3921.03956	0.91327
3919.11086	0.91361
3917.18216	0.91413
3915.25347	0.91401
3913.32477	0.91431
3911.39607	0.91481
3909.46738	0.91507
3907.53868	0.91516
3905.60999	0.91551
3903.68129	0.91554
3901.75259	0.91540
3899.82390	0.91592
3897.89520	0.91584
3895.96650	0.91589
3894.03781	0.91655
3892.10911	0.91740
3890.18042	0.91694
3888.25172	0.91671
3886.32302	0.91798
3884.39433	0.91729
3882.46563	0.91718
3880.53693	0.91840
3878.60824	0.91805
3876.67954	0.91795
3874.75084	0.91849
3872.82215	0.91826
3870.89345	0.91907
3868.96476	0.91879
3867.03606	0.91828
3865.10736	0.91948
3863.17867	0.91926
3861.24997	0.91900
3859.32127	0.91853
3857.39258	0.91843
3855.46388	0.91956
3853.53519	0.92047
3851.60649	0.91885
3849.67779	0.91865
3847.74910	0.91958
3845.82040	0.92017
3843.89170	0.92046
3841.96301	0.92017
3840.03431	0.92030
3838.10562	0.92097
3836.17692	0.92043
3834.24822	0.92044
3832.31953	0.92116
3830.39083	0.92124
3828.46213	0.92117
3826.53344	0.92125
3824.60474	0.92095
3822.67604	0.92197
3820.74735	0.92212
3818.81865	0.92073
3816.88996	0.92182
3814.96126	0.92176
3813.03256	0.92112
3811.10387	0.92144
3809.17517	0.92207
3807.24647	0.92299
3805.31778	0.92195
3803.38908	0.92224
3801.46039	0.92324
3799.53169	0.92180
3797.60299	0.92208
3795.67430	0.92283
3793.74560	0.92276
3791.81690	0.92286
3789.88821	0.92295
3787.95951	0.92302
3786.03082	0.92320
3784.10212	0.92315
3782.17342	0.92295
3780.24473	0.92337
3778.31603	0.92321
3776.38733	0.92288
3774.45864	0.92293
3772.52994	0.92308
3770.60125	0.92367
3768.67255	0.92336
3766.74385	0.92335
3764.81516	0.92337
3762.88646	0.92297
3760.95776	0.92343
3759.02907	0.92348
3757.10037	0.92286
3755.17167	0.92230
3753.24298	0.92292
3751.31428	0.92316
3749.38559	0.92266
3747.45689	0.92141
3745.52819	0.92324
3743.59950	0.92326
3741.67080	0.92190
3739.74210	0.92236
3737.81341	0.92297
3735.88471	0.92318
3733.95602	0.92272
3732.02732	0.92301
3730.09862	0.92253
3728.16993	0.92291
3726.24123	0.92338
3724.31253	0.92307
3722.38384	0.92332
3720.45514	0.92332
3718.52645	0.92319
3716.59775	0.92263
3714.66905	0.92254
3712.74036	0.92333
3710.81166	0.92304
3708.88296	0.92247
3706.95427	0.92198
3705.02557	0.92198
3703.09688	0.92224
3701.16818	0.92202
3699.23948	0.92122
3697.31079	0.92099
3695.38209	0.92063
3693.45339	0.92020
3691.52470	0.92030
3689.59600	0.92033
3687.66730	0.91955
3685.73861	0.91808
3683.80991	0.91779
3681.88122	0.91725
3679.95252	0.91641
3678.02382	0.91579
3676.09513	0.91622
3674.16643	0.91371
3672.23773	0.91220
3670.30904	0.91268
3668.38034	0.91089
3666.45165	0.90916
3664.52295	0.90812
3662.59425	0.90672
3660.66556	0.90481
3658.73686	0.90306
3656.80816	0.90171
3654.87947	0.89874
3652.95077	0.89646
3651.02208	0.89552
3649.09338	0.89323
3647.16468	0.89004
3645.23599	0.88704
3643.30729	0.88471
3641.37859	0.88225
3639.44990	0.87948
3637.52120	0.87655
3635.59250	0.87358
3633.66381	0.87023
3631.73511	0.86680
3629.80642	0.86492
3627.87772	0.86086
3625.94902	0.85622
3624.02033	0.85298
3622.09163	0.84998
3620.16293	0.84698
3618.23424	0.84264
3616.30554	0.83807
3614.37685	0.83448
3612.44815	0.83048
3610.51945	0.82610
3608.59076	0.82220
3606.66206	0.81736
3604.73336	0.81282
3602.80467	0.80866
3600.87597	0.80440
3598.94728	0.79985
3597.01858	0.79536
3595.08988	0.79100
3593.16119	0.78592
3591.23249	0.78104
3589.30379	0.77737
3587.37510	0.77325
3585.44640	0.76790
3583.51771	0.76300
3581.58901	0.75878
3579.66031	0.75445
3577.73162	0.75019
3575.80292	0.74602
3573.87422	0.74179
3571.94553	0.73768
3570.01683	0.73418
3568.08813	0.73122
3566.15944	0.72693
3564.23074	0.72242
3562.30205	0.71870
3560.37335	0.71536
3558.44465	0.71197
3556.51596	0.70870
3554.58726	0.70576
3552.65856	0.70293
3550.72987	0.69973
3548.80117	0.69675
3546.87248	0.69451
3544.94378	0.69190
3543.01508	0.68902
3541.08639	0.68635
3539.15769	0.68386
3537.22899	0.68175
3535.30030	0.67946
3533.37160	0.67715
3531.44291	0.67505
3529.51421	0.67323
3527.58551	0.67145
3525.65682	0.66944
3523.72812	0.66779
3521.79942	0.66586
3519.87073	0.66394
3517.94203	0.66224
3516.01333	0.66063
3514.08464	0.65923
3512.15594	0.65789
3510.22725	0.65676
3508.29855	0.65519
3506.36985	0.65368
3504.44116	0.65268
3502.51246	0.65150
3500.58376	0.65001
3498.65507	0.64864
3496.72637	0.64754
3494.79768	0.64647
3492.86898	0.64549
3490.94028	0.64446
3489.01159	0.64348
3487.08289	0.64241
3485.15419	0.64136
3483.22550	0.64072
3481.29680	0.63985
3479.36811	0.63889
3477.43941	0.63813
3475.51071	0.63756
3473.58202	0.63694
3471.65332	0.63621
3469.72462	0.63561
3467.79593	0.63488
3465.86723	0.63408
3463.93854	0.63343
3462.00984	0.63295
3460.08114	0.63236
3458.15245	0.63179
3456.22375	0.63131
3454.29505	0.63072
3452.36636	0.63016
3450.43766	0.62967
3448.50896	0.62930
3446.58027	0.62869
3444.65157	0.62798
3442.72288	0.62779
3440.79418	0.62750
3438.86548	0.62732
3436.93679	0.62708
3435.00809	0.62661
3433.07939	0.62606
3431.15070	0.62566
3429.22200	0.62528
3427.29331	0.62473
3425.36461	0.62434
3423.43591	0.62416
3421.50722	0.62412
3419.57852	0.62390
3417.64982	0.62362
3415.72113	0.62337
3413.79243	0.62304
3411.86374	0.62284
3409.93504	0.62264
3408.00634	0.62250
3406.07765	0.62221
3404.14895	0.62196
3402.22025	0.62205
3400.29156	0.62189
3398.36286	0.62141
3396.43417	0.62110
3394.50547	0.62105
3392.57677	0.62095
3390.64808	0.62063
3388.71938	0.62039
3386.79068	0.62027
3384.86199	0.62017
3382.93329	0.62001
3381.00459	0.61986
3379.07590	0.61959
3377.14720	0.61946
3375.21851	0.61941
3373.28981	0.61930
3371.36111	0.61929
3369.43242	0.61928
3367.50372	0.61928
3365.57502	0.61917
3363.64633	0.61891
3361.71763	0.61871
3359.78894	0.61856
3357.86024	0.61841
3355.93154	0.61835
3354.00285	0.61841
3352.07415	0.61842
3350.14545	0.61831
3348.21676	0.61815
3346.28806	0.61808
3344.35937	0.61804
3342.43067	0.61797
3340.50197	0.61790
3338.57328	0.61783
3336.64458	0.61782
3334.71588	0.61777
3332.78719	0.61767
3330.85849	0.61759
3328.92979	0.61760
3327.00110	0.61768
3325.07240	0.61764
3323.14371	0.61762
3321.21501	0.61763
3319.28631	0.61760
3317.35762	0.61760
3315.42892	0.61754
3313.50022	0.61754
3311.57153	0.61776
3309.64283	0.61796
3307.71414	0.61803
3305.78544	0.61814
3303.85674	0.61812
3301.92805	0.61796
3299.99935	0.61790
3298.07065	0.61797
3296.14196	0.61814
3294.21326	0.61827
3292.28457	0.61839
3290.35587	0.61829
3288.42717	0.61810
3286.49848	0.61822
3284.56978	0.61837
3282.64108	0.61843
3280.71239	0.61853
3278.78369	0.61859
3276.85500	0.61871
3274.92630	0.61895
3272.99760	0.61928
3271.06891	0.61954
3269.14021	0.61947
3267.21151	0.61936
3265.28282	0.61947
3263.35412	0.61961
3261.42542	0.61973
3259.49673	0.61994
3257.56803	0.62023
3255.63934	0.62040
3253.71064	0.62052
3251.78194	0.62063
3249.85325	0.62079
3247.92455	0.62112
3245.99585	0.62146
3244.06716	0.62170
3242.13846	0.62189
3240.20977	0.62211
3238.28107	0.62233
3236.35237	0.62253
3234.42368	0.62274
3232.49498	0.62277
3230.56628	0.62278
3228.63759	0.62313
3226.70889	0.62350
3224.78020	0.62367
3222.85150	0.62388
3220.92280	0.62420
3218.99411	0.62447
3217.06541	0.62468
3215.13671	0.62493
3213.20802	0.62515
3211.27932	0.62546
3209.35063	0.62586
3207.42193	0.62614
3205.49323	0.62637
3203.56454	0.62655
3201.63584	0.62680
3199.70714	0.62723
3197.77845	0.62749
3195.84975	0.62762
3193.92105	0.62799
3191.99236	0.62844
3190.06366	0.62889
3188.13497	0.62926
3186.20627	0.62961
3184.27757	0.62990
3182.34888	0.63027
3180.42018	0.63087
3178.49148	0.63142
3176.56279	0.63178
3174.63409	0.63206
3172.70540	0.63241
3170.77670	0.63290
3168.84800	0.63347
3166.91931	0.63398
3164.99061	0.63444
3163.06191	0.63493
3161.13322	0.63544
3159.20452	0.63612
3157.27583	0.63675
3155.34713	0.63735
3153.41843	0.63798
3151.48974	0.63850
3149.56104	0.63909
3147.63234	0.63973
3145.70365	0.64036
3143.77495	0.64104
3141.84625	0.64181
3139.91756	0.64255
3137.98886	0.64309
3136.06017	0.64357
3134.13147	0.64420
3132.20277	0.64501
3130.27408	0.64590
3128.34538	0.64676
3126.41668	0.64750
3124.48799	0.64822
3122.55929	0.64912
3120.63060	0.65007
3118.70190	0.65096
3116.77320	0.65184
3114.84451	0.65257
3112.91581	0.65319
3110.98711	0.65408
3109.05842	0.65508
3107.12972	0.65594
3105.20103	0.65679
3103.27233	0.65770
3101.34363	0.65872
3099.41494	0.65971
3097.48624	0.66072
3095.55754	0.66178
3093.62885	0.66280
3091.70015	0.66390
3089.77146	0.66493
3087.84276	0.66593
3085.91406	0.66706
3083.98537	0.66825
3082.05667	0.66949
3080.12797	0.67061
3078.19928	0.67160
3076.27058	0.67264
3074.34188	0.67374
3072.41319	0.67482
3070.48449	0.67595
3068.55580	0.67730
3066.62710	0.67861
3064.69840	0.67974
3062.76971	0.68083
3060.84101	0.68194
3058.91231	0.68317
3056.98362	0.68450
3055.05492	0.68568
3053.12623	0.68689
3051.19753	0.68818
3049.26883	0.68943
3047.34014	0.69071
3045.41144	0.69201
3043.48274	0.69321
3041.55405	0.69434
3039.62535	0.69554
3037.69666	0.69683
3035.76796	0.69812
3033.83926	0.69928
3031.91057	0.70031
3029.98187	0.70133
3028.05317	0.70243
3026.12448	0.70357
3024.19578	0.70472
3022.26708	0.70583
3020.33839	0.70686
3018.40969	0.70786
3016.48100	0.70885
3014.55230	0.70972
3012.62360	0.71040
3010.69491	0.71087
3008.76621	0.71127
3006.83751	0.71177
3004.90882	0.71218
3002.98012	0.71232
3001.05143	0.71237
2999.12273	0.71235
2997.19403	0.71200
2995.26534	0.71154
2993.33664	0.71110
2991.40794	0.71034
2989.47925	0.70930
2987.55055	0.70826
2985.62186	0.70726
2983.69316	0.70612
2981.76446	0.70481
2979.83577	0.70349
2977.90707	0.70212
2975.97837	0.70077
2974.04968	0.69946
2972.12098	0.69808
2970.19229	0.69693
2968.26359	0.69586
2966.33489	0.69447
2964.40620	0.69301
2962.47750	0.69160
2960.54880	0.68995
2958.62011	0.68805
2956.69141	0.68601
2954.76271	0.68394
2952.83402	0.68190
2950.90532	0.67976
2948.97663	0.67782
2947.04793	0.67616
2945.11923	0.67453
2943.19054	0.67303
2941.26184	0.67163
2939.33314	0.67049
2937.40445	0.66971
2935.47575	0.66908
2933.54706	0.66867
2931.61836	0.66849
2929.68966	0.66849
2927.76097	0.66860
2925.83227	0.66881
2923.90357	0.66914
2921.97488	0.66945
2920.04618	0.66981
2918.11749	0.67016
2916.18879	0.67047
2914.26009	0.67094
2912.33140	0.67140
2910.40270	0.67177
2908.47400	0.67218
2906.54531	0.67248
2904.61661	0.67272
2902.68792	0.67295
2900.75922	0.67314
2898.83052	0.67332
2896.90183	0.67341
2894.97313	0.67352
2893.04443	0.67369
2891.11574	0.67374
2889.18704	0.67383
2887.25834	0.67415
2885.32965	0.67461
2883.40095	0.67515
2881.47226	0.67588
2879.54356	0.67689
2877.61486	0.67802
2875.68617	0.67931
2873.75747	0.68078
2871.82877	0.68226
2869.90008	0.68376
2867.97138	0.68535
2866.04269	0.68703
2864.11399	0.68862
2862.18529	0.69013
2860.25660	0.69168
2858.32790	0.69315
2856.39920	0.69457
2854.47051	0.69600
2852.54181	0.69741
2850.61312	0.69880
2848.68442	0.70014
2846.75572	0.70142
2844.82703	0.70276
2842.89833	0.70420
2840.96963	0.70564
2839.04094	0.70703
2837.11224	0.70841
2835.18354	0.70988
2833.25485	0.71131
2831.32615	0.71255
2829.39746	0.71370
2827.46876	0.71494
2825.54006	0.71632
2823.61137	0.71754
2821.68267	0.71864
2819.75397	0.71984
2817.82528	0.72103
2815.89658	0.72225
2813.96789	0.72337
2812.03919	0.72441
2810.11049	0.72555
2808.18180	0.72660
2806.25310	0.72750
2804.32440	0.72845
2802.39571	0.72951
2800.46701	0.73055
2798.53832	0.73147
2796.60962	0.73238
2794.68092	0.73331
2792.75223	0.73419
2790.82353	0.73507
2788.89483	0.73596
2786.96614	0.73684
2785.03744	0.73769
2783.10875	0.73851
2781.18005	0.73931
2779.25135	0.74002
2777.32266	0.74076
2775.39396	0.74155
2773.46526	0.74222
2771.53657	0.74284
2769.60787	0.74340
2767.67917	0.74403
2765.75048	0.74480
2763.82178	0.74541
2761.89309	0.74591
2759.96439	0.74642
2758.03569	0.74688
2756.10700	0.74734
2754.17830	0.74786
2752.24960	0.74838
2750.32091	0.74878
2748.39221	0.74911
2746.46352	0.74952
2744.53482	0.74998
2742.60612	0.75035
2740.67743	0.75059
2738.74873	0.75082
2736.82003	0.75115
2734.89134	0.75147
2732.96264	0.75181
2731.03395	0.75215
2729.10525	0.75236
2727.17655	0.75262
2725.24786	0.75302
2723.31916	0.75336
2721.39046	0.75367
2719.46177	0.75402
2717.53307	0.75441
2715.60438	0.75476
2713.67568	0.75503
2711.74698	0.75537
2709.81829	0.75583
2707.88959	0.75628
2705.96089	0.75669
2704.03220	0.75715
2702.10350	0.75758
2700.17480	0.75799
2698.24611	0.75845
2696.31741	0.75893
2694.38872	0.75943
2692.46002	0.75988
2690.53132	0.76035
2688.60263	0.76090
2686.67393	0.76136
2684.74523	0.76190
2682.81654	0.76253
2680.88784	0.76308
2678.95915	0.76372
2677.03045	0.76433
2675.10175	0.76485
2673.17306	0.76550
2671.24436	0.76620
2669.31566	0.76680
2667.38697	0.76739
2665.45827	0.76811
2663.52958	0.76883
2661.60088	0.76952
2659.67218	0.77019
2657.74349	0.77093
2655.81479	0.77172
2653.88609	0.77236
2651.95740	0.77307
2650.02870	0.77387
2648.10000	0.77454
2646.17131	0.77525
2644.24261	0.77596
2642.31392	0.77675
2640.38522	0.77756
2638.45652	0.77828
2636.52783	0.77906
2634.59913	0.77987
2632.67043	0.78056
2630.74174	0.78126
2628.81304	0.78204
2626.88435	0.78277
2624.95565	0.78352
2623.02695	0.78432
2621.09826	0.78503
2619.16956	0.78562
2617.24086	0.78625
2615.31217	0.78705
2613.38347	0.78784
2611.45478	0.78845
2609.52608	0.78901
2607.59738	0.78963
2605.66869	0.79030
2603.73999	0.79093
2601.81129	0.79156
2599.88260	0.79217
2597.95390	0.79277
2596.02521	0.79340
2594.09651	0.79393
2592.16781	0.79442
2590.23912	0.79497
2588.31042	0.79551
2586.38172	0.79600
2584.45303	0.79641
2582.52433	0.79689
2580.59563	0.79739
2578.66694	0.79783
2576.73824	0.79833
2574.80955	0.79882
2572.88085	0.79928
2570.95215	0.79966
2569.02346	0.79992
2567.09476	0.80025
2565.16606	0.80068
2563.23737	0.80110
2561.30867	0.80152
2559.37998	0.80194
2557.45128	0.80228
2555.52258	0.80258
2553.59389	0.80299
2551.66519	0.80329
2549.73649	0.80345
2547.80780	0.80375
2545.87910	0.80415
2543.95041	0.80454
2542.02171	0.80492
2540.09301	0.80525
2538.16432	0.80561
2536.23562	0.80603
2534.30692	0.80634
2532.37823	0.80651
2530.44953	0.80674
2528.52083	0.80711
2526.59214	0.80751
2524.66344	0.80788
2522.73475	0.80820
2520.80605	0.80858
2518.87735	0.80904
2516.94866	0.80940
2515.01996	0.80969
2513.09126	0.81004
2511.16257	0.81035
2509.23387	0.81070
2507.30518	0.81115
2505.37648	0.81162
2503.44778	0.81197
2501.51909	0.81220
2499.59039	0.81261
2497.66169	0.81310
2495.73300	0.81350
2493.80430	0.81389
2491.87561	0.81427
2489.94691	0.81480
2488.01821	0.81549
2486.08952	0.81601
2484.16082	0.81636
2482.23212	0.81680
2480.30343	0.81732
2478.37473	0.81789
2476.44604	0.81848
2474.51734	0.81905
2472.58864	0.81962
2470.65995	0.82022
2468.73125	0.82091
2466.80255	0.82157
2464.87386	0.82217
2462.94516	0.82284
2461.01646	0.82344
2459.08777	0.82408
2457.15907	0.82482
2455.23038	0.82549
2453.30168	0.82603
2451.37298	0.82663
2449.44429	0.82740
2447.51559	0.82811
2445.58689	0.82881
2443.65820	0.82956
2441.72950	0.83020
2439.80081	0.83080
2437.87211	0.83138
2435.94341	0.83212
2434.01472	0.83282
2432.08602	0.83338
2430.15732	0.83392
2428.22863	0.83447
2426.29993	0.83516
2424.37124	0.83594
2422.44254	0.83659
2420.51384	0.83708
2418.58515	0.83766
2416.65645	0.83827
2414.72775	0.83871
2412.79906	0.83919
2410.87036	0.83969
2408.94167	0.84018
2407.01297	0.84071
2405.08427	0.84117
2403.15558	0.84166
2401.22688	0.84217
2399.29818	0.84259
2397.36949	0.84296
2395.44079	0.84337
2393.51209	0.84378
2391.58340	0.84412
2389.65470	0.84445
2387.72601	0.84471
2385.79731	0.84482
2383.86861	0.84488
2381.93992	0.84499
2380.01122	0.84517
2378.08252	0.84537
2376.15383	0.84562
2374.22513	0.84589
2372.29644	0.84573
2370.36774	0.84533
2368.43904	0.84527
2366.51035	0.84493
2364.58165	0.84481
2362.65295	0.84504
2360.72426	0.84482
2358.79556	0.84537
2356.86687	0.84680
2354.93817	0.84825
2353.00947	0.84837
2351.08078	0.84595
2349.15208	0.84447
2347.22338	0.84752
2345.29469	0.85051
2343.36599	0.85013
2341.43729	0.84920
2339.50860	0.84876
2337.57990	0.84871
2335.65121	0.84916
2333.72251	0.84949
2331.79381	0.84971
2329.86512	0.84996
2327.93642	0.85026
2326.00772	0.85044
2324.07903	0.85079
2322.15033	0.85134
2320.22164	0.85200
2318.29294	0.85222
2316.36424	0.85234
2314.43555	0.85275
2312.50685	0.85313
2310.57815	0.85338
2308.64946	0.85362
2306.72076	0.85390
2304.79207	0.85407
2302.86337	0.85428
2300.93467	0.85456
2299.00598	0.85476
2297.07728	0.85496
2295.14858	0.85519
2293.21989	0.85533
2291.29119	0.85547
2289.36250	0.85563
2287.43380	0.85570
2285.50510	0.85578
2283.57641	0.85588
2281.64771	0.85600
2279.71901	0.85625
2277.79032	0.85654
2275.86162	0.85667
2273.93292	0.85671
2272.00423	0.85678
2270.07553	0.85690
2268.14684	0.85699
2266.21814	0.85706
2264.28944	0.85716
2262.36075	0.85725
2260.43205	0.85734
2258.50335	0.85739
2256.57466	0.85747
2254.64596	0.85755
2252.71727	0.85754
2250.78857	0.85749
2248.85987	0.85745
2246.93118	0.85758
2245.00248	0.85767
2243.07378	0.85777
2241.14509	0.85788
2239.21639	0.85788
2237.28770	0.85784
2235.35900	0.85783
2233.43030	0.85789
2231.50161	0.85793
2229.57291	0.85784
2227.64421	0.85775
2225.71552	0.85780
2223.78682	0.85792
2221.85813	0.85786
2219.92943	0.85787
2218.00073	0.85802
2216.07204	0.85804
2214.14334	0.85802
2212.21464	0.85803
2210.28595	0.85807
2208.35725	0.85809
2206.42855	0.85811
2204.49986	0.85814
2202.57116	0.85798
2200.64247	0.85784
2198.71377	0.85776
2196.78507	0.85762
2194.85638	0.85760
2192.92768	0.85756
2190.99898	0.85749
2189.07029	0.85751
2187.14159	0.85753
2185.21290	0.85752
2183.28420	0.85752
2181.35550	0.85742
2179.42681	0.85733
2177.49811	0.85731
2175.56941	0.85720
2173.64072	0.85717
2171.71202	0.85721
2169.78333	0.85710
2167.85463	0.85703
2165.92593	0.85705
2163.99724	0.85706
2162.06854	0.85704
2160.13984	0.85693
2158.21115	0.85685
2156.28245	0.85685
2154.35375	0.85675
2152.42506	0.85670
2150.49636	0.85679
2148.56767	0.85688
2146.63897	0.85685
2144.71027	0.85671
2142.78158	0.85656
2140.85288	0.85644
2138.92418	0.85637
2136.99549	0.85642
2135.06679	0.85648
2133.13810	0.85644
2131.20940	0.85641
2129.28070	0.85643
2127.35201	0.85638
2125.42331	0.85633
2123.49461	0.85630
2121.56592	0.85626
2119.63722	0.85630
2117.70853	0.85642
2115.77983	0.85655
2113.85113	0.85661
2111.92244	0.85673
2109.99374	0.85692
2108.06504	0.85704
2106.13635	0.85716
2104.20765	0.85728
2102.27896	0.85744
2100.35026	0.85765
2098.42156	0.85783
2096.49287	0.85796
2094.56417	0.85801
2092.63547	0.85819
2090.70678	0.85841
2088.77808	0.85848
2086.84938	0.85859
2084.92069	0.85879
2082.99199	0.85899
2081.06330	0.85911
2079.13460	0.85917
2077.20590	0.85925
2075.27721	0.85934
2073.34851	0.85947
2071.41981	0.85961
2069.49112	0.85974
2067.56242	0.85982
2065.63373	0.85991
2063.70503	0.85997
2061.77633	0.85995
2059.84764	0.86003
2057.91894	0.86023
2055.99024	0.86041
2054.06155	0.86062
2052.13285	0.86069
2050.20416	0.86068
2048.27546	0.86086
2046.34676	0.86113
2044.41807	0.86133
2042.48937	0.86152
2040.56067	0.86170
2038.63198	0.86185
2036.70328	0.86205
2034.77458	0.86225
2032.84589	0.86236
2030.91719	0.86247
2028.98850	0.86268
2027.05980	0.86289
2025.13110	0.86309
2023.20241	0.86330
2021.27371	0.86346
2019.34501	0.86365
2017.41632	0.86398
2015.48762	0.86403
2013.55893	0.86416
2011.63023	0.86459
2009.70153	0.86491
2007.77284	0.86512
2005.84414	0.86530
2003.91544	0.86554
2001.98675	0.86588
2000.05805	0.86618
1998.12936	0.86635
1996.20066	0.86645
1994.27196	0.86665
1992.34327	0.86711
1990.41457	0.86711
1988.48587	0.86726
1986.55718	0.86734
1984.62848	0.86737
1982.69979	0.86739
1980.77109	0.86741
1978.84239	0.86743
1976.91370	0.86745
1974.98500	0.86752
1973.05630	0.86759
1971.12761	0.86763
1969.19891	0.86773
1967.27021	0.86792
1965.34152	0.86779
1963.41282	0.86784
1961.48413	0.86802
1959.55543	0.86815
1957.62673	0.86825
1955.69804	0.86831
1953.76934	0.86836
1951.84064	0.86849
1949.91195	0.86863
1947.98325	0.86878
1946.05456	0.86894
1944.12586	0.86926
1942.19716	0.86963
1940.26847	0.86933
1938.33977	0.86955
1936.41107	0.86979
1934.48238	0.86986
1932.55368	0.86989
1930.62499	0.87009
1928.69629	0.87028
1926.76759	0.87021
1924.83890	0.87037
1922.91020	0.87070
1920.98150	0.87037
1919.05281	0.87093
1917.12411	0.87103
1915.19542	0.87056
1913.26672	0.87085
1911.33802	0.87115
1909.40933	0.87135
1907.48063	0.87127
1905.55193	0.87125
1903.62324	0.87130
1901.69454	0.87130
1899.76584	0.87132
1897.83715	0.87139
1895.90845	0.87161
1893.97976	0.87158
1892.05106	0.87155
1890.12236	0.87215
1888.19367	0.87198
1886.26497	0.87182
1884.33627	0.87210
1882.40758	0.87222
1880.47888	0.87231
1878.55019	0.87247
1876.62149	0.87265
1874.69279	0.87271
1872.76410	0.87265
1870.83540	0.87323
1868.90670	0.87405
1866.97801	0.87336
1865.04931	0.87306
1863.12062	0.87328
1861.19192	0.87346
1859.26322	0.87352
1857.33453	0.87351
1855.40583	0.87354
1853.47713	0.87357
1851.54844	0.87356
1849.61974	0.87364
1847.69104	0.87367
1845.76235	0.87443
1843.83365	0.87538
1841.90496	0.87397
1839.97626	0.87389
1838.04756	0.87436
1836.11887	0.87451
1834.19017	0.87445
1832.26147	0.87475
1830.33278	0.87571
1828.40408	0.87508
1826.47539	0.87514
1824.54669	0.87552
1822.61799	0.87495
1820.68930	0.87499
1818.76060	0.87524
1816.83190	0.87536
1814.90321	0.87515
1812.97451	0.87526
1811.04582	0.87559
1809.11712	0.87535
1807.18842	0.87507
1805.25973	0.87483
1803.33103	0.87499
1801.40233	0.87524
1799.47364	0.87489
1797.54494	0.87418
1795.61625	0.87408
1793.68755	0.87489
1791.75885	0.87506
1789.83016	0.87364
1787.90146	0.87316
1785.97276	0.87359
1784.04407	0.87352
1782.11537	0.87324
1780.18667	0.87317
1778.25798	0.87235
1776.32928	0.87184
1774.40059	0.87205
1772.47189	0.87262
1770.54319	0.87067
1768.61450	0.86943
1766.68580	0.86780
1764.75710	0.86607
1762.82841	0.86533
1760.89971	0.86323
1758.97102	0.86047
1757.04232	0.85841
1755.11362	0.85515
1753.18493	0.85252
1751.25623	0.85050
1749.32753	0.84681
1747.39884	0.84287
1745.47014	0.83903
1743.54145	0.83545
1741.61275	0.83198
1739.68405	0.82841
1737.75536	0.82385
1735.82666	0.82195
1733.89796	0.82036
1731.96927	0.81534
1730.04057	0.81225
1728.11188	0.81025
1726.18318	0.80850
1724.25448	0.80710
1722.32579	0.80568
1720.39709	0.80537
1718.46839	0.80680
1716.53970	0.80625
1714.61100	0.80506
1712.68230	0.80458
1710.75361	0.80528
1708.82491	0.80657
1706.89622	0.80844
1704.96752	0.80962
1703.03882	0.81083
1701.11013	0.81479
1699.18143	0.81568
1697.25273	0.81627
1695.32404	0.81853
1693.39534	0.81785
1691.46665	0.81879
1689.53795	0.82006
1687.60925	0.82088
1685.68056	0.82374
1683.75186	0.82474
1681.82316	0.82196
1679.89447	0.82077
1677.96577	0.82076
1676.03708	0.82153
1674.10838	0.82003
1672.17968	0.81848
1670.25099	0.81850
1668.32229	0.81677
1666.39359	0.81396
1664.46490	0.81325
1662.53620	0.81257
1660.60750	0.80996
1658.67881	0.80761
1656.75011	0.80656
1654.82142	0.80858
1652.89272	0.80921
1650.96402	0.80337
1649.03533	0.80189
1647.10663	0.80371
1645.17793	0.80290
1643.24924	0.80133
1641.32054	0.80145
1639.39185	0.80227
1637.46315	0.80445
1635.53445	0.80649
1633.60576	0.80496
1631.67706	0.80458
1629.74836	0.80617
1627.81967	0.80773
1625.89097	0.80852
1623.96228	0.81006
1622.03358	0.81013
1620.10488	0.81003
1618.17619	0.81219
1616.24749	0.81373
1614.31879	0.81249
1612.39010	0.81279
1610.46140	0.81394
1608.53271	0.81472
1606.60401	0.81506
1604.67531	0.81555
1602.74662	0.81622
1600.81792	0.81681
1598.88922	0.81756
1596.96053	0.81847
1595.03183	0.81936
1593.10313	0.82011
1591.17444	0.82098
1589.24574	0.82192
1587.31705	0.82277
1585.38835	0.82356
1583.45965	0.82433
1581.53096	0.82504
1579.60226	0.82598
1577.67356	0.82839
1575.74487	0.83017
1573.81617	0.82903
1571.88748	0.83025
1569.95878	0.83299
1568.03008	0.83330
1566.10139	0.83337
1564.17269	0.83376
1562.24399	0.83489
1560.31530	0.83933
1558.38660	0.84079
1556.45791	0.83739
1554.52921	0.83676
1552.60051	0.83660
1550.67182	0.83696
1548.74312	0.83679
1546.81442	0.83653
1544.88573	0.83704
1542.95703	0.83758
1541.02833	0.83894
1539.09964	0.83804
1537.17094	0.83443
1535.24225	0.83448
1533.31355	0.83560
1531.38485	0.83404
1529.45616	0.83314
1527.52746	0.83324
1525.59876	0.83273
1523.67007	0.83224
1521.74137	0.83273
1519.81268	0.83045
1517.88398	0.82862
1515.95528	0.82705
1514.02659	0.82478
1512.09789	0.82312
1510.16919	0.82192
1508.24050	0.82249
1506.31180	0.82144
1504.38311	0.81540
1502.45441	0.81136
1500.52571	0.80960
1498.59702	0.80767
1496.66832	0.80449
1494.73962	0.79934
1492.81093	0.79510
1490.88223	0.79238
1488.95354	0.78797
1487.02484	0.78234
1485.09614	0.77645
1483.16745	0.77119
1481.23875	0.76582
1479.31005	0.76003
1477.38136	0.75459
1475.45266	0.74943
1473.52396	0.74448
1471.59527	0.73786
1469.66657	0.73058
1467.73788	0.72557
1465.80918	0.72202
1463.88048	0.71735
1461.95179	0.71253
1460.02309	0.71038
1458.09439	0.71008
1456.16570	0.70714
1454.23700	0.70228
1452.30831	0.70033
1450.37961	0.69968
1448.45091	0.69935
1446.52222	0.69823
1444.59352	0.69677
1442.66482	0.69569
1440.73613	0.69449
1438.80743	0.69435
1436.87874	0.69483
1434.95004	0.69215
1433.02134	0.69017
1431.09265	0.68977
1429.16395	0.68901
1427.23525	0.68756
1425.30656	0.68683
1423.37786	0.68602
1421.44917	0.68572
1419.52047	0.68671
1417.59177	0.68500
1415.66308	0.68346
1413.73438	0.68314
1411.80568	0.68321
1409.87699	0.68316
1407.94829	0.68326
1406.01959	0.68411
1404.09090	0.68462
1402.16220	0.68490
1400.23351	0.68635
1398.30481	0.68757
1396.37611	0.68855
1394.44742	0.68995
1392.51872	0.68998
1390.59002	0.69069
1388.66133	0.69244
1386.73263	0.69326
1384.80394	0.69277
1382.87524	0.69279
1380.94654	0.69270
1379.01785	0.69239
1377.08915	0.69207
1375.16045	0.69211
1373.23176	0.69151
1371.30306	0.69044
1369.37437	0.69016
1367.44567	0.68972
1365.51697	0.68941
1363.58828	0.68982
1361.65958	0.68942
1359.73088	0.68851
1357.80219	0.68818
1355.87349	0.68821
1353.94479	0.68819
1352.01610	0.68796
1350.08740	0.68777
1348.15871	0.68771
1346.23001	0.68773
1344.30131	0.68787
1342.37262	0.68832
1340.44392	0.68935
1338.51522	0.69016
1336.58653	0.69077
1334.65783	0.69164
1332.72914	0.69279
1330.80044	0.69397
1328.87174	0.69515
1326.94305	0.69633
1325.01435	0.69738
1323.08565	0.69820
1321.15696	0.69905
1319.22826	0.70000
1317.29957	0.70077
1315.37087	0.70163
1313.44217	0.70271
1311.51348	0.70382
1309.58478	0.70506
1307.65608	0.70648
1305.72739	0.70801
1303.79869	0.70948
1301.87000	0.71084
1299.94130	0.71229
1298.01260	0.71357
1296.08391	0.71455
1294.15521	0.71524
1292.22651	0.71553
1290.29782	0.71562
1288.36912	0.71554
1286.44042	0.71526
1284.51173	0.71494
1282.58303	0.71463
1280.65434	0.71419
1278.72564	0.71352
1276.79694	0.71273
1274.86825	0.71183
1272.93955	0.71083
1271.01085	0.70974
1269.08216	0.70845
1267.15346	0.70720
1265.22477	0.70606
1263.29607	0.70509
1261.36737	0.70432
1259.43868	0.70343
1257.50998	0.70262
1255.58128	0.70204
1253.65259	0.70163
1251.72389	0.70147
1249.79520	0.70134
1247.86650	0.70117
1245.93780	0.70117
1244.00911	0.70131
1242.08041	0.70153
1240.15171	0.70180
1238.22302	0.70207
1236.29432	0.70244
1234.36563	0.70285
1232.43693	0.70329
1230.50823	0.70394
1228.57954	0.70477
1226.65084	0.70587
1224.72214	0.70725
1222.79345	0.70880
1220.86475	0.71076
1218.93605	0.71313
1217.00736	0.71563
1215.07866	0.71803
1213.14997	0.72023
1211.22127	0.72206
1209.29257	0.72342
1207.36388	0.72412
1205.43518	0.72408
1203.50648	0.72372
1201.57779	0.72311
1199.64909	0.72232
1197.72040	0.72186
1195.79170	0.72179
1193.86300	0.72206
1191.93431	0.72276
1190.00561	0.72382
1188.07691	0.72511
1186.14822	0.72656
1184.21952	0.72808
1182.29083	0.72962
1180.36213	0.73139
1178.43343	0.73322
1176.50474	0.73453
1174.57604	0.73512
1172.64734	0.73486
1170.71865	0.73338
1168.78995	0.73049
1166.86125	0.72643
1164.93256	0.72140
1163.00386	0.71572
1161.07517	0.71010
1159.14647	0.70494
1157.21777	0.70025
1155.28908	0.69610
1153.36038	0.69271
1151.43168	0.69034
1149.50299	0.68881
1147.57429	0.68799
1145.64560	0.68814
1143.71690	0.68893
1141.78820	0.68998
1139.85951	0.69116
1137.93081	0.69217
1136.00211	0.69282
1134.07342	0.69305
1132.14472	0.69307
1130.21603	0.69300
1128.28733	0.69282
1126.35863	0.69256
1124.42994	0.69203
1122.50124	0.69109
1120.57254	0.68974
1118.64385	0.68826
1116.71515	0.68673
1114.78646	0.68488
1112.85776	0.68261
1110.92906	0.68023
1109.00037	0.67800
1107.07167	0.67612
1105.14297	0.67459
1103.21428	0.67329
1101.28558	0.67248
1099.35688	0.67234
1097.42819	0.67273
1095.49949	0.67321
1093.57080	0.67342
1091.64210	0.67324
1089.71340	0.67219
1087.78471	0.67039
1085.85601	0.66850
1083.92731	0.66651
1081.99862	0.66432
1080.06992	0.66222
1078.14123	0.66058
1076.21253	0.65916
1074.28383	0.65808
1072.35514	0.65755
1070.42644	0.65707
1068.49774	0.65661
1066.56905	0.65608
1064.64035	0.65535
1062.71166	0.65465
1060.78296	0.65380
1058.85426	0.65275
1056.92557	0.65147
1054.99687	0.65024
1053.06817	0.64947
1051.13948	0.64879
1049.21078	0.64802
1047.28208	0.64742
1045.35339	0.64704
1043.42469	0.64668
1041.49600	0.64625
1039.56730	0.64569
1037.63860	0.64492
1035.70991	0.64406
1033.78121	0.64307
1031.85251	0.64175
1029.92382	0.64044
1027.99512	0.63954
1026.06643	0.63862
1024.13773	0.63760
1022.20903	0.63697
1020.28034	0.63674
1018.35164	0.63673
1016.42294	0.63666
1014.49425	0.63651
1012.56555	0.63620
1010.63686	0.63570
1008.70816	0.63573
1006.77946	0.63644
1004.85077	0.63739
1002.92207	0.63890
1000.99337	0.64098
999.06468	0.64307
997.13598	0.64496
995.20729	0.64645
993.27859	0.64717
991.34989	0.64732
989.42120	0.64760
987.49250	0.64815
985.56380	0.64880
983.63511	0.64984
981.70641	0.65115
979.77771	0.65261
977.84902	0.65485
975.92032	0.65794
973.99163	0.66192
972.06293	0.66628
970.13423	0.66951
968.20554	0.67147
966.27684	0.67312
964.34814	0.67508
962.41945	0.67840
960.49075	0.68391
958.56206	0.69088
956.63336	0.69824
954.70466	0.70513
952.77597	0.71042
950.84727	0.71410
948.91857	0.71693
946.98988	0.71904
945.06118	0.72026
943.13249	0.72081
941.20379	0.72118
939.27509	0.72145
937.34640	0.72143
935.41770	0.72093
933.48900	0.71981
931.56031	0.71806
929.63161	0.71587
927.70292	0.71355
925.77422	0.71125
923.84552	0.70901
921.91683	0.70681
919.98813	0.70538
918.05943	0.70511
916.13074	0.70572
914.20204	0.70708
912.27334	0.70888
910.34465	0.71063
908.41595	0.71184
906.48726	0.71257
904.55856	0.71278
902.62986	0.71220
900.70117	0.71165
898.77247	0.71173
896.84377	0.71234
894.91508	0.71314
892.98638	0.71450
891.05769	0.71676
889.12899	0.71938
887.20029	0.72212
885.27160	0.72434
883.34290	0.72583
881.41420	0.72720
879.48551	0.72788
877.55681	0.72716
875.62812	0.72571
873.69942	0.72427
871.77072	0.72268
869.84203	0.72110
867.91333	0.72026
865.98463	0.72055
864.05594	0.72135
862.12724	0.72232
860.19854	0.72439
858.26985	0.72743
856.34115	0.73023
854.41246	0.73240
852.48376	0.73428
850.55506	0.73578
848.62637	0.73670
846.69767	0.73783
844.76897	0.73871
842.84028	0.73920
840.91158	0.73979
838.98289	0.73998
837.05419	0.74018
835.12549	0.74059
833.19680	0.74116
831.26810	0.74159
829.33940	0.74122
827.41071	0.74039
825.48201	0.73972
823.55332	0.73954
821.62462	0.73959
819.69592	0.74020
817.76723	0.74135
815.83853	0.74210
813.90983	0.74299
811.98114	0.74507
810.05244	0.74779
808.12375	0.74941
806.19505	0.75006
804.26635	0.75108
802.33766	0.75221
800.40896	0.75291
798.48026	0.75336
796.55157	0.75343
794.62287	0.75292
792.69417	0.75278
790.76548	0.75292
788.83678	0.75265
786.90809	0.75224
784.97939	0.75190
783.05069	0.75247
781.12200	0.75330
779.19330	0.75307
777.26460	0.75229
775.33591	0.75161
773.40721	0.75132
771.47852	0.75152
769.54982	0.75136
767.62112	0.75048
765.69243	0.75044
763.76373	0.75068
761.83503	0.75050
759.90634	0.75088
757.97764	0.75109
756.04895	0.75075
754.12025	0.75017
752.19155	0.75014
750.26286	0.75034
748.33416	0.74992
746.40546	0.75015
744.47677	0.75024
742.54807	0.75015
740.61938	0.75039
738.69068	0.75000
736.76198	0.74962
734.83329	0.74936
732.90459	0.74904
730.97589	0.74923
729.04720	0.75014
727.11850	0.75090
725.18980	0.75092
723.26111	0.75076
721.33241	0.75095
719.40372	0.75115
717.47502	0.75097
715.54632	0.75037
713.61763	0.74999
711.68893	0.75049
709.76023	0.75114
707.83154	0.75122
705.90284	0.75095
703.97415	0.75057
702.04545	0.75036
700.11675	0.75052
698.18806	0.75084
696.25936	0.75115
694.33066	0.75142
692.40197	0.75155
690.47327	0.75160
688.54458	0.75176
686.61588	0.75180
684.68718	0.75166
682.75849	0.75185
680.82979	0.75238
678.90109	0.75289
676.97240	0.75327
675.04370	0.75322
673.11500	0.75091
671.18631	0.74882
669.25761	0.75543
667.32892	0.75722
665.40022	0.74944
663.47152	0.75020
661.54283	0.75345
659.61413	0.75408
657.68543	0.75367
655.75674	0.75310
653.82804	0.75299
651.89935	0.75340
649.97065	0.75356
648.04195	0.75323
646.11326	0.75309
644.18456	0.75355
642.25586	0.75405
640.32717	0.75422
638.39847	0.75426
636.46978	0.75424
634.54108	0.75401
632.61238	0.75384
630.68369	0.75418
628.75499	0.75453
626.82629	0.75429
624.89760	0.75423
622.96890	0.75450
621.04021	0.75485
619.11151	0.75482
617.18281	0.75458
615.25412	0.75429
613.32542	0.75427
611.39672	0.75465
609.46803	0.75482
607.53933	0.75503
605.61063	0.75524
603.68194	0.75526
601.75324	0.75482
599.82455	0.75424
597.89585	0.75445
595.96715	0.75461
594.03846	0.75473
592.10976	0.75514
590.18106	0.75557
588.25237	0.75590
586.32367	0.75578
584.39498	0.75583
582.46628	0.75586
580.53758	0.75541
578.60889	0.75511
576.68019	0.75504
574.75149	0.75506
572.82280	0.75532
570.89410	0.75590
568.96541	0.75662
567.03671	0.75712
565.10801	0.75710
563.17932	0.75663
561.25062	0.75626
559.32192	0.75616
557.39323	0.75612
555.46453	0.75603
553.53583	0.75633
551.60714	0.75714
549.67844	0.75723
547.74975	0.75640
545.82105	0.75598
543.89235	0.75659
541.96366	0.75744
540.03496	0.75739
538.10626	0.75710
536.17757	0.75731
534.24887	0.75717
532.32018	0.75711
530.39148	0.75757
528.46278	0.75737
526.53409	0.75678
524.60539	0.75684
522.67669	0.75744
520.74800	0.75800
518.81930	0.75824
516.89061	0.75804
514.96191	0.75779
513.03321	0.75797
511.10452	0.75802
509.17582	0.75794
507.24712	0.75833
505.31843	0.75856
503.38973	0.75835
501.46104	0.75783
499.53234	0.75763
# a comment
; a different kind of comment (from Kazan viewer)